wavelength_nm,intensity
792.446,232.27336455011178
792.565,210.07336455011176
792.684,189.26384074058794
792.803,169.8447931215403
792.922,151.81622169296872
793.041,124.66124333799044
793.16,105.61189268863987
793.279,99.86210913885637
793.398,104.84479312154038
793.518,121.48375416050136
793.637,135.6586459353931
793.756,154.55215242889955
793.875,167.22055069729777
793.994,175.84652472327178
794.113,173.96340784015484
794.232,163.52791000465697
794.351,146.93743381418085
794.47,138.04739052413757
794.589,130.24998792673495
794.708,125.73483641158342
794.827,118.87163294837993
794.946,118.11319138993841
795.066,125.11405719080417
795.185,137.6127584895055
795.304,146.12271519946222
795.423,154.24912212586912
795.542,154.2439273206743
795.661,138.18158965833663
795.78,120.83094030768731
795.899,109.64565892240597
796.018,106.72531260205969
796.137,106.26124333799055
796.256,107.15821303496026
796.375,116.22487970162686
796.494,111.88029095703814
796.613,104.53483641158361
796.732,100.15561563236278
796.851,98.42401390076097
796.97,95.42747710422417
797.089,87.70799658474368
797.208,83.31405719080428
797.327,91.15648143322849
797.446,89.02228229902938
797.565,88.42834290509003
797.684,90.09587537262256
797.803,92.85171952846673
797.922,92.82228229902952
798.041,89.3296416063888
798.16,91.20929528604246
798.279,95.02661130335844
798.398,93.25951173625889
798.517,100.2447931215403
798.636,104.58072385747104
798.755,100.73829961504678
798.874,103.30453338128046
798.993,110.24219571894272
799.112,122.39284506959206
799.231,127.58678446353146
799.35,124.7486892254363
799.469,133.96600524275232
799.588,124.84825632500343
799.707,107.25518273192989
799.826,97.70539918214632
799.945,83.64825632500349
800.064,79.21622169296883
800.183,84.63007450682161
800.302,86.71578879253593
800.421,100.44998792673502
800.54,102.72444680119392
800.659,102.09241216915932
800.778,108.20323467998182
800.897,112.86384074058788
801.016,121.03873251547961
801.135,133.15042082716792
801.254,139.1703342470813
801.373,146.15994463669165
801.492,153.0733645501116
801.611,162.56600524275228
801.729,180.95215242889947
801.848,190.6335377102847
801.967,182.2551827319297
802.086,171.9660052427522
802.205,151.03007450682145
802.324,131.9097281864752
802.443,108.47429151157485
802.562,83.32111999736793
802.681,66.45374624559769
802.8,47.029712648010054
802.919,25.367826564943286
803.038,14.838168102443099
803.157,3.8932091796527084
803.276,4.969306804702944
803.394,-6.200797855151279
803.513,-11.421368004370924
803.632,-14.877333032391046
803.751,-15.48583852780597
803.87,-17.014496275838283
803.989,-15.640519668472274
804.108,-18.28125248031588
804.227,-20.633545673016286
804.346,-26.953248395131702
804.465,-27.956202795506563
804.583,-25.32311078561962
804.702,-16.632330866659665
804.821,-9.162229111101617
804.94,-1.3396153402113078
805.059,1.9657627023233255
805.178,4.170011634590051
805.297,2.7420150776630496
805.416,7.376016130494445
805.535,19.254336908725513
805.653,26.801343526093977
805.772,37.53534107074877
805.891,38.91483230143086
806.01,44.841295483840725
806.129,60.744293517857315
806.248,78.97087916320285
806.367,103.78014879123239
806.485,132.17556560540908
806.604,156.27747592607932
806.723,179.30319577055897
806.842,185.8804307665539
806.961,193.27411597899908
807.08,193.30243322607632
807.198,191.03984138224462
807.317,185.259500620664
807.436,183.97959275951638
807.555,178.64340784209173
807.674,183.16436578180986
807.793,187.19095142715565
807.912,191.6158054707699
808.03,200.1445556182802
808.149,219.3304486229335
808.268,247.31893903018403
808.387,270.1489878789929
808.506,292.00154755031235
808.624,304.43419380171827
808.743,297.83567122195524
808.862,282.19385859890207
808.981,267.63949186329467
809.1,245.31629395885602
809.219,220.7342215955427
809.337,188.11318819326812
809.456,168.82808552692413
809.575,153.35423827183558
809.694,147.8691356054917
809.812,151.0766736317886
809.931,164.30931988319372
810.05,176.53677132940413
810.169,189.66032667171825
810.288,196.4843149144652
810.406,205.3446667935758
810.525,204.51670698437465
810.644,200.65844414487063
810.763,200.70927221445749
810.882,202.29516521910938
811.0,212.10703224973537
811.119,230.96305512451713
811.238,246.53249791271907
811.357,257.50886710784755
811.475,261.3068813246211
811.594,261.0027310392303
811.713,264.6310482863069
811.832,263.70092397494193
811.95,260.03140572418295
812.069,255.4536623651988
812.188,252.0101181404139
812.307,251.9527211017761
812.425,252.39748856530275
812.544,249.7227755093489
812.663,251.2558546611874
812.782,251.88850091259314
812.9,242.15577919863097
813.019,248.69145575306706
813.138,260.22366910404
813.257,277.8320729312033
813.375,292.44653736442706
813.494,305.07658621323526
813.613,315.8919164473249
813.731,321.36179213595994
813.85,316.80482799775507
813.969,324.96474697643345
814.088,325.7359213663673
814.206,335.3590438082491
814.325,348.3838978518627
814.444,352.9559380426625
814.562,354.56867087415503
814.681,366.49915262339636
814.8,371.4279027709059
814.918,372.5531897149523
815.037,369.5823727628947
815.156,375.2972700965515
815.274,375.4684444864851
815.393,366.54178337858315
815.512,361.1242131797722
815.631,368.4616213359395
815.749,374.6102849033623
815.868,384.75635106818754
815.987,386.9612916918874
816.105,387.09004183939686
816.224,377.059484627599
816.343,362.1899663768402
816.461,345.77239617802957
816.58,330.50720693159997
816.698,314.590935434088
816.817,320.0504215123336
816.936,311.74453962521125
817.055,308.2932031926341
817.173,299.1284468466371
817.292,289.16195889890844
817.41,289.48031943602825
817.529,282.36577954024756
817.648,267.7386855319129
817.766,272.8076954196822
817.885,260.09488712563336
818.004,255.5006935501993
818.122,250.15152161978682
818.241,246.65343194045667
818.359,253.36919507497925
818.478,254.42907939254474
818.597,255.9606491697203
818.715,244.21362999922235
818.834,248.5650898689327
818.953,259.7910239342429
819.071,363.6734127887411
819.19,484.4941290671446
819.308,608.9737374407262
819.427,717.6066741999196
819.546,757.5006036557932
819.664,722.2306838803895
819.783,632.5665165525219
819.901,504.4067658230616
820.02,435.8012393980762
820.138,358.5131796839819
820.257,305.804992478895
820.376,273.6096338576207
820.494,247.70051030901237
820.613,237.0189110811186
820.731,226.22212010308692
820.85,222.80974470947092
820.969,234.58611390459956
821.087,251.41010214734723
821.206,275.1198046758091
821.324,300.4624076371716
821.443,323.3192963128199
821.561,337.73462654690985
821.68,335.7681385991817
821.798,317.3072783570815
821.917,291.78061724918035
822.035,261.6738695611926
822.154,235.04850715459008
822.273,225.98331790816076
822.391,218.70860485220769
822.51,225.6996926620556
822.628,218.615455796579
822.747,221.45416265404617
822.865,220.65564007428398
822.984,222.61642485382916
823.102,219.73132218748677
823.221,215.8817173566423
823.339,211.78709088077628
823.458,212.92017003261589
823.576,199.38138771259423
823.695,197.48849283846016
823.813,199.33672350545174
823.932,209.98581997330936
824.05,208.65309825934878
824.169,206.43725966227146
824.287,203.9850574288306
824.406,199.14930541183998
824.524,199.18541486671091
824.643,199.57390527396274
824.761,208.58057749939638
824.88,216.3967735343538
824.998,223.1705453268868
825.117,232.34431711941988
825.235,225.92674692061098
825.354,219.17930659193198
825.472,221.13316496455178
825.591,221.90260775275593
825.709,226.4763795452892
825.828,216.25794354561475
825.946,209.60054650697944
826.064,206.72410184929691
826.183,192.25371779767514
826.301,185.93311729583706
826.42,183.50429168577398
826.538,191.33434053458518
826.657,201.1972898162967
826.775,204.5485507863196
826.894,201.85565591218656
827.012,190.32899480428716
827.13,172.49151118556512
827.249,155.30770722052267
827.367,138.7533404849176
827.486,130.62754517788392
827.604,122.97014813924852
827.723,127.04262123048326
827.841,133.9185575251813
827.959,143.4126756380612
828.078,168.0626379067852
828.196,189.983595846505
828.315,210.68810356977474
828.433,220.64715674759003
828.552,221.207941527137
828.67,218.3072544452121
828.788,196.84812580484567
828.907,177.02189759737962
829.025,151.0415067033727
829.143,119.10230014071121
829.262,94.00015356556675
829.38,70.75089184699492
829.499,64.54909572613049
829.617,59.630111333797544
829.735,48.98523052712027
829.854,40.339733372902494
829.972,39.3852594598775
830.091,43.58827089546902
830.209,57.76418578853858
830.327,77.56445826823233
830.446,112.59979558249557
830.564,144.50530242915553
830.682,163.91245417118898
830.801,174.76904115382916
830.919,182.46372337456472
831.037,170.199098235993
831.156,149.04875881170693
831.274,135.83694752594917
831.392,117.35803006994354
831.511,104.48690922382926
831.629,95.1845699666171
831.747,102.87730025541069
831.866,113.27314124185617
831.984,122.33937644963187
832.102,133.59430666622302
832.221,139.39296422863612
832.339,128.99377969006537
832.457,117.39372935062906
832.576,100.93393875145237
832.694,93.70531698344456
832.812,88.0524527911942
832.93,82.94166283764747
833.049,84.41234720115514
833.167,72.8508281751862
833.285,73.93210730017975
833.404,79.51419112350408
833.522,93.47878384014871
833.64,108.96765092908848
833.759,117.9782901489539
833.877,126.48514365924383
833.995,136.3536232020863
834.113,135.54849486493143
834.232,153.867176051586
834.35,167.78066243304573
834.468,192.21103193138876
834.586,210.4162932046235
834.705,215.38605664236042
834.823,217.291750816028
834.941,209.55242334467388
835.059,195.64599630622018
835.178,182.46597619417335
835.296,165.37599937216987
835.414,170.49121735536136
835.532,172.10253923465675
835.651,170.09481349490466
835.769,167.71392758199238
835.887,172.15641829245658
836.005,182.654320258332
836.124,189.09334776533308
836.242,205.04839258835128
836.36,227.4588486667808
836.478,240.52471600062154
836.596,255.18452272840176
836.715,260.4148922267447
836.833,265.5734002532263
836.951,275.90766585546544
837.069,289.56054617631946
837.188,309.65065593440283
837.306,321.4273457790663
837.424,336.1737325934265
837.542,353.41189429956154
837.66,357.2336057892462
837.779,359.84059866421217
837.897,367.6432625348491
838.015,373.79311255267226
838.133,371.3083305358633
838.251,370.1404316359374
838.369,367.8591128225913
838.487,369.8054996369509
838.606,368.7908474902715
838.724,370.4610438284408
838.842,368.81782025319023
838.96,363.6888823922254
839.078,358.46903544035166
839.196,365.46477290406216
839.315,368.92198222924435
839.433,380.29953787477274
839.551,388.5827212259286
839.669,392.9117920229719
839.787,389.63826541741764
839.905,378.50066954779396
840.023,372.4115585266551
840.142,366.47915746222617
840.26,352.53550098654193
840.378,343.4178185368316
840.496,336.21442180140684
840.614,334.8647047196618
840.732,336.52364564657466
840.85,338.71418830508935
840.968,340.75581321468616
841.087,348.45717838402345
841.205,344.56460415942126
841.323,341.1776576404466
841.441,331.37685830761893
841.559,330.7440243427566
841.677,345.73803020473383
841.795,363.56926550394036
841.913,375.89314149578763
842.031,398.690610561228
842.149,410.5937073322963
842.267,409.8275400341007
842.385,402.48042035495274
842.504,394.91078985329403
842.622,401.672761083237
842.74,403.70053317898083
842.858,399.8711624175817
842.976,397.51798213237305
843.094,391.6782217605844
843.212,383.47655662689107
843.33,377.6567096750157
843.448,380.4853475716252
843.566,384.907924862174
843.684,394.686346308567
843.802,391.1470188372109
843.92,392.90119785936116
844.038,393.21555004168454
844.156,390.9541446482502
844.274,396.5923063543828
844.392,412.1343641644115
844.51,414.790707688726
844.628,421.5725923385818
844.746,417.98910902306955
844.864,418.7017296036615
844.982,406.9165146864178
845.1,382.7633344012086
845.218,363.7772536830991
845.336,336.53489590871243
845.454,305.25530869709644
845.572,271.3748556846148
845.69,244.67016024789058
845.808,220.39749944320113
845.926,200.97159188526473
846.044,188.4123509939949
846.162,182.69380274341756
846.28,163.82287354045923
846.398,151.43506122061768
846.516,139.11304976657706
846.634,118.3750624364908
846.752,89.87081371352275
846.87,79.22826910667379
846.988,75.46230315943973
847.106,73.47772975284167
847.224,60.5687555244647
847.342,57.95951633881076
847.46,57.7582969992396
847.578,43.57401181675603
847.696,27.878726554468756
847.814,27.155804527907065
847.932,19.602413726318783
848.05,15.461699976273014
848.168,17.709047992269955
848.285,37.18527724838254
848.403,54.66642427187311
848.521,69.72627682824168
848.639,77.82565356415601
848.757,86.55093861667108
848.875,83.10760582558846
848.993,83.10236827260124
849.111,97.72397054645393
849.229,115.78107065580456
849.347,126.45981578680014
849.465,136.14375572299048
849.582,133.1999900314753
849.7,133.35838884212473
849.818,129.86916860515515
849.936,133.95484014307743
850.054,144.5071783476665
850.172,151.64566373840276
850.29,160.73306687805675
850.408,172.88280768004847
850.525,176.55982120931307
850.643,180.03077413251714
850.761,185.22120757520162
850.879,188.77787478411992
850.997,193.22978008827636
851.115,196.33103604178348
851.233,199.16995433295307
851.35,207.0097384249886
851.468,212.9516870191888
851.586,229.56982608957952
851.704,250.91437208637737
851.822,275.2848921091493
851.94,312.61645109296035
852.057,355.8995252282866
852.175,407.7843309653447
852.293,453.8890501223163
852.411,495.35221083772956
852.529,538.0924278301991
852.647,574.9313461213701
852.764,613.0940739363507
852.882,642.9208710154006
853.0,676.6463693931518
853.118,701.1502227492579
853.236,705.8332968845846
853.353,696.240180543721
853.471,682.6739040296973
853.589,659.58468379273
853.707,640.1439484042476
853.824,614.5265896391418
853.942,599.4659408307461
854.06,581.1888418059003
854.178,554.8459419152535
854.296,522.5826957042605
854.413,483.82421139802943
854.531,439.1142119402834
854.649,393.1375458158709
854.767,348.7115290421078
854.884,306.17555555838806
855.002,260.52183315691946
855.12,211.09235317969308
855.238,163.9208818604752
855.355,124.95980015164692
855.473,96.59179203589218
855.591,68.92630389319713
855.708,43.60228659443112
855.826,24.634464443905536
855.944,4.993010624395165
856.062,-7.883805331556625
856.179,-16.36646245414139
856.297,-18.67533781942727
856.415,-20.774854857567703
856.532,-17.932308451067748
856.65,-22.529450896399414
856.768,-21.02168288930793
856.886,-24.066423242158198
857.003,-24.980770573562573
857.121,-28.74826193463598
857.239,-37.8078807415126
857.356,-38.13169004596599
857.474,-37.61785560982048
857.592,-37.91781777054621
857.709,-28.2578376083312
857.827,-13.41990851796233
857.945,-0.18750181130075694
858.062,13.099090108714442
858.18,23.289365337178634
858.298,36.00066280199779
858.415,41.10071698412326
858.533,43.279978759691886
858.651,44.12871586460325
858.768,43.389716618653935
858.886,45.405914972588846
859.003,46.778891495726604
859.121,40.437301658414725
859.239,34.5519640063313
859.356,30.409556455601603
859.474,25.60764497281535
859.592,18.05323187499584
859.709,16.382976653284164
859.827,19.356579676223145
859.944,18.046100191416635
860.062,11.931003368459855
860.18,3.9408824272220637
860.297,2.3906394200509196
860.415,1.4361783000921324
860.532,-1.0558574000709262
860.65,5.569428320157648
860.768,14.119819188413798
860.885,26.608882644765337
861.003,32.531743441339906
861.12,39.796900487595394
861.238,45.270276314011824
861.356,41.54924967900392
861.473,40.157653847789646
861.591,43.105451955969215
861.708,43.30433231523099
861.826,45.87377544505546
861.943,45.51075104241232
862.061,47.900107592150206
862.178,43.12149877392271
862.296,42.55327956608485
862.414,49.647398020584795
862.531,59.97095370452199
862.649,57.380955394564054
862.766,57.46752554806865
862.884,54.85366443606111
863.001,49.60304235102683
863.119,44.136882723794265
863.236,43.533529223102065
863.354,47.34489597204953
863.471,59.09603464766317
863.589,61.74487474063716
863.706,65.89068453058104
863.824,78.21052029455102
863.941,84.18490151306642
864.059,89.80343857573769
864.176,86.56916178559499
864.294,82.75220101276828
864.411,83.58285928756052
864.529,78.72866907750424
864.646,67.49266068562987
864.764,75.60037523747847
864.881,79.63622831746545
864.999,88.40281732818832
865.116,100.73564010514492
865.233,122.16629837993719
865.351,144.4523679101407
865.468,157.74449804640494
865.586,167.16216930821042
865.703,188.71577130594682
865.821,191.16547719978698
865.938,189.4065250849691
866.056,190.5263608489392
866.173,186.91459488130764
866.29,179.67598908683618
866.408,180.06335731833872
866.525,180.46804156715734
866.643,185.67099421424444
866.76,182.70857889596346
866.878,186.22495145647042
866.995,186.06513354078686
867.112,188.56765328744092
867.23,188.78792195184383
867.347,195.115549923606
867.465,194.22499607718632
867.582,197.8123643086887
867.699,197.40146414192253
867.817,201.83558562017802
867.934,199.94762917635546
868.051,211.25274632560655
868.169,222.70418382117788
868.286,236.16254772367566
868.404,248.3464527517146
868.521,268.2862019355978
868.638,278.4493277428578
868.756,292.85401199167643
868.873,306.16865295045176
868.99,324.89628092221426
869.108,350.4594067294746
869.225,371.6705844847868
869.342,390.75189211022877
869.46,436.0193469218178
869.577,472.32316536977055
869.694,500.3507933415327
869.812,522.3186810535548
869.929,531.2268285058367
870.046,541.5419023650451
870.164,529.5539459212232
870.281,516.7434786548905
870.398,514.9516261071726
870.516,508.9632367629179
870.633,495.27787772169347
870.75,479.2990121869626
870.867,459.76516829725347
870.985,448.5724499486697
871.102,423.79185281220714
871.219,403.57316043764945
871.337,381.6012213098452
871.454,369.9470310997898
871.571,351.10842530531875
871.688,331.71743855846694
871.806,309.31346479862793
871.923,290.6012659305637
872.04,263.1643917378242
872.157,236.4876907052578
872.275,215.45601131771318
872.392,199.20615011198686
872.509,178.41776076773257
872.626,167.37222856633554
872.744,158.11630675454893
872.861,144.6404715228489
872.978,129.23822936474184
873.095,123.64724261789006
873.213,117.67616929095178
873.33,106.62544228435993
873.447,86.39289709594978
873.564,73.43221337940096
873.681,58.11914871047119
873.799,44.34288057833769
873.916,34.63660452955594
874.033,32.828804789297074
874.15,31.85639054531008
874.267,20.10929059159234
874.385,7.666191438505974
874.502,-2.642952162271163
874.619,-11.483320528101213
874.736,-15.296868843149875
874.853,-15.436809972154077
874.97,-9.438495965779016
875.088,4.315642721004892
875.205,7.1999276505892045
875.322,22.98168191734165
875.439,20.32848614814648
875.556,20.36693074492711
875.673,12.015816816661676
875.791,5.50317014906323
875.908,4.2245848882937915
876.025,4.7639153564222285
876.142,3.9997706311675163
876.259,9.476495619319774
876.376,-3.259117443411343
876.493,-1.5168707161685508
876.61,-3.9148869397702946
876.728,-4.1054500446302375
876.845,-0.5956833946126148
876.962,-2.6830637708428338
877.079,-0.16242964361599554
877.196,4.664054209051402
877.313,3.924456149921514
877.43,8.204135889266569
877.547,4.892091676410729
877.664,3.5261107319284966
877.781,3.156493952159511
877.898,1.2098607028937312
878.016,5.241520485940442
878.133,7.280073182192101
878.25,8.692638948194617
878.367,8.496331688503094
878.484,5.365575505893741
878.601,3.529906309830299
878.718,3.578663169208514
878.835,-2.7836700081483525
878.952,-2.156304265270581
879.069,-6.894842410669653
879.186,-15.926327075425544
879.303,-15.483927518029526
879.42,-11.976707543782734
879.537,-9.315846357725862
879.654,-8.567933921259938
879.771,-14.033889477874125
879.888,-17.73441997071272
880.005,-19.584710073883976
880.122,-22.58841919460113
880.239,-26.745547332864223
880.356,-32.05609448867325
