wavelength_nm,intensity
792.446,159.43022218375168
792.565,144.75870703223657
792.684,131.16381525734482
792.803,118.64554685907645
792.922,107.20390183743132
793.041,91.19264642617598
793.16,80.04978928331886
793.279,76.15628278981237
793.398,71.09654253007206
793.518,66.3554169889465
793.637,76.34156417509365
793.756,95.58398841751787
793.875,111.72857716210657
793.994,126.77359880712828
794.113,135.63593646946597
794.232,127.80563343916295
794.351,110.64892348245307
794.47,92.7242481577778
794.589,82.86623949976907
794.708,74.80130443483397
794.827,68.4627762963058
794.946,67.40649924002875
795.066,70.22987586340543
795.185,71.58312261665215
795.304,77.24459447812404
795.423,80.9121269456565
795.542,82.94762478115429
795.661,81.60823084176036
795.78,73.81515724868682
795.899,67.23853387206346
796.018,58.28701872054833
796.137,49.935503569033116
796.256,49.057581491111044
796.375,53.5909148244443
796.494,52.39206216201736
796.613,49.4294921543577
796.732,44.116462146109654
796.851,39.080670699699596
796.97,33.29374756407974
797.089,27.2843191684331
797.208,32.11116879533357
797.327,34.77831772078108
797.446,30.407251340330724
797.565,31.157252799599295
797.684,33.186484463849766
797.803,38.0041900016965
797.922,36.74224522184964
798.041,40.7259837687029
798.16,44.407021275927434
798.279,40.119290099121244
798.398,32.17020979114854
798.517,31.961895924814073
798.636,32.0128413393131
798.755,36.373393943641325
798.874,36.74437143520967
798.993,40.830083879165926
799.112,40.32026912631445
799.231,41.30840007615512
799.35,38.791023878290815
799.469,42.10914551592441
799.588,41.5363237003959
799.707,40.94505437456572
799.826,38.12731698803703
799.945,26.310902831523492
800.064,21.016976588239686
800.183,21.183364547037804
800.302,27.79918663703974
800.421,36.11390661983545
800.54,37.05927070654496
800.659,44.55602846426347
800.778,41.611065118392155
800.897,39.647928446731385
801.016,41.03245368035144
801.135,40.74574964546685
801.254,44.164411860516225
801.373,53.626756302395926
801.492,63.34624360141845
801.611,76.20772224243234
801.729,86.86573767998316
801.848,96.19301718679816
801.967,102.99215816547476
802.086,97.55580130865354
802.205,88.82766956005747
802.324,80.39269056992454
802.443,58.03147531897843
802.562,39.11293088414643
802.681,27.300096784235926
802.8,7.834673161774458
802.919,4.970702253346153
803.038,-4.125162206402796
803.157,-2.154747393553306
803.276,-3.8833613213215337
803.394,-12.148231490448492
803.513,-16.614673710298952
803.632,-21.009985211391985
803.751,-27.865742337254865
803.87,-33.3073543384275
803.989,-37.898520299008915
804.108,-41.20221922790472
804.227,-45.779991738149285
804.346,-54.92886438656288
804.465,-51.990157795212916
804.583,-52.515966016275925
804.702,-39.01156439848528
804.821,-38.77901628234442
804.94,-28.802468674126228
805.059,-34.48959379308334
805.178,-36.91598154801368
805.297,-38.25714114681123
805.416,-33.65119171593414
805.535,-34.14563445465528
805.653,-27.66913741416211
805.772,-29.41632467450666
805.891,-23.877204207946694
806.01,-29.410927056480478
806.129,-19.70593700659938
806.248,-5.557779562652696
806.367,11.165549222935445
806.485,31.796030618508524
806.604,49.71260934194486
806.723,60.42750448688267
806.842,73.85661823975084
806.961,78.89380429322073
807.08,87.30501632071653
807.198,87.76904220102625
807.317,84.55687760514569
807.436,75.50834937290168
807.555,73.66328434412108
807.674,73.37319767031893
807.793,72.67098978439559
807.912,75.46055679024715
808.03,87.87696362293835
808.149,97.63709339935244
808.268,109.70458248312582
808.387,121.1123313071588
808.506,139.1053615164732
808.624,149.2594306868266
808.743,141.74596738964766
808.862,138.67059933056402
808.981,130.33029620654517
809.1,117.91726580979905
809.219,106.04709255590993
809.337,88.72803151788796
809.456,70.4055706648153
809.575,55.926482147940646
809.694,42.276101152736885
809.812,37.522056378203736
809.931,35.79813442301125
810.05,45.923327404547315
810.169,60.98451694160195
810.288,66.05801958244209
810.406,72.33583183217023
810.525,71.92676384456868
810.644,62.79994563137953
810.763,64.92236834918674
810.882,66.22418528248416
811.0,73.09054405296422
811.119,85.3693788273107
811.238,92.69002503581274
811.357,96.9935261964365
811.475,92.46863237476511
811.594,91.76884677820183
811.713,101.53919105176846
811.832,105.93637515217483
811.95,112.71624323526538
812.069,117.1575831798279
812.188,125.39892312439036
812.307,123.86450549319528
812.425,119.36298829490082
812.544,111.60432823946354
812.663,105.26298420134236
812.782,107.63073107231207
812.9,114.10756885237288
813.019,122.8285624765895
813.138,131.06124441249432
813.257,144.15106920554194
813.375,155.76989832759395
813.494,160.64500450592297
813.613,169.70192886607015
813.731,173.26534673271073
813.85,176.2001931707799
813.969,175.7376370114463
814.088,167.490665267697
814.206,174.5242130044673
814.325,177.82529320876998
814.444,188.99563748233686
814.562,198.04996443988642
814.681,191.9155468086915
814.8,194.7889213852888
814.918,196.0960621956522
815.037,191.8179216207341
815.156,193.8341533401882
815.274,188.4677010769583
815.393,191.13328344576308
815.512,190.13133334703548
815.631,185.27397199289658
815.749,192.29193531408248
815.868,199.6839246092943
815.987,195.90448533307762
816.105,200.11811964993464
816.224,190.22093145596926
816.343,177.4873796256404
816.461,161.66378450526827
816.58,140.51378245848923
816.698,137.0018756498054
816.817,136.63022858138126
816.936,139.05252090689646
817.055,144.11290847050702
817.173,139.8183176791392
817.292,128.80597797002258
817.41,121.88021834748619
817.529,110.52502149551265
817.648,108.04601511972952
817.766,100.65878363572128
817.885,98.36852184868279
818.004,101.48432066770496
818.122,99.72825801486567
818.241,100.61894860877982
818.359,110.61093790399272
818.478,116.8496804459588
818.597,120.00876930827101
818.715,120.39280235623102
818.834,137.20039200604685
818.953,175.39119162751
819.071,243.00372415683933
819.19,340.7761896536425
819.308,441.44312440729493
819.427,514.233192658379
819.546,543.5222362714467
819.664,513.5037513353852
819.783,438.23230411397776
819.901,345.0142247384391
820.02,269.82160480080205
820.138,211.76465847110498
820.257,164.9660586634609
820.376,132.3953973042784
820.494,107.39003705101825
820.613,93.6938397209706
820.731,87.51684628120387
820.85,89.62723631251814
820.969,96.06374769151297
821.087,106.12009217500312
821.206,119.64452249958549
821.324,137.74124719646218
821.443,150.97563423100155
821.561,163.5632680187876
821.68,165.76042561609762
821.798,152.56624122206566
821.917,132.45257630855318
822.035,117.83674689287616
822.154,108.28498674126843
822.273,105.06049931693346
822.391,99.95504107602032
822.51,91.28480436073365
822.628,79.07841637722055
822.747,70.49096343634031
822.865,67.69895842570709
822.984,68.03021093955964
823.102,68.20365411858846
823.221,75.39427971487093
823.339,79.89201255074536
823.458,82.01803314704323
823.576,79.21980392088773
823.695,81.9635660367237
823.813,84.91338875862044
823.932,77.06792682917222
824.05,71.66116837580111
824.169,69.9940758519224
824.287,67.25924798261087
824.406,62.50734688734486
824.524,67.3662891794971
824.643,71.11224163733097
824.761,70.12976288133652
824.88,67.963145362525
824.998,65.50434152344249
825.117,69.7658089654605
825.235,64.23769986202592
825.354,64.96434085484037
825.472,72.60204835535937
825.591,76.41178261644177
825.709,73.81672348992551
825.828,70.7601925019374
825.946,63.696735107022775
826.064,67.86444654327698
826.183,57.68828360207145
826.301,61.16474686921568
826.42,63.183853769947895
826.538,66.0131212529174
826.657,70.48024977286887
826.775,60.55156633688699
826.894,55.40587186297063
827.012,53.72204016643761
827.13,44.083788532291706
827.249,41.79379116968974
827.367,34.28879034950041
827.486,36.09150550129444
827.604,35.62221454369092
827.723,27.217749778008816
827.841,28.442953751212556
827.959,37.71206999257564
828.078,48.77350343063944
828.196,66.97819142056551
828.315,79.12932439214518
828.433,90.12554831329865
828.552,91.40088905684458
828.67,94.89787482203543
828.788,88.66570615458994
828.907,76.09614856857777
829.025,59.94617855573961
829.143,46.87572412916034
829.262,20.154092029221733
829.38,-5.490331549722479
829.499,-22.560932818162506
829.617,-23.583061276024146
829.735,-28.04823542422602
829.854,-26.574683065595586
829.972,-15.163572445401673
830.091,-4.1820295878498515
830.209,-4.013228977033728
830.327,3.9407377769066745
830.446,15.498316487164612
830.564,31.252697862037685
830.682,36.95979660719784
830.801,46.93319979896111
830.919,58.505905339881366
831.037,55.97207293621053
831.156,46.21089046881596
831.274,38.18349394607759
831.392,28.824846286459167
831.511,20.626850713314887
831.629,12.00920614855704
831.747,12.175442141372258
831.866,12.033721201750136
831.984,15.649789749539075
832.102,23.17355394521966
832.221,26.631206230402626
832.339,25.334552128551053
832.457,30.253012825738598
832.576,30.652841038280165
832.694,26.418883123780404
832.812,15.528090979266484
832.93,10.054399574118793
833.049,-1.06940698651138
833.167,-7.052484358938475
833.285,-10.080589320242982
833.404,4.525477808404962
833.522,13.644365627859077
833.64,21.39996077095413
833.759,24.941766865752932
833.877,28.30948135289188
833.995,30.5298175887741
834.113,33.85767169673342
834.232,37.62929092236607
834.35,45.642927139429986
834.468,54.681440796339224
834.586,69.24555494073937
834.705,78.95541908480283
834.823,88.30078106436423
834.941,91.52666252444516
835.059,78.48383286228784
835.178,61.60513673328203
835.296,43.10339762349786
835.414,37.22336590163365
835.532,39.31358029087751
835.651,45.44541548795489
835.769,51.38191333195962
835.887,57.30592133249259
836.005,66.99152124109028
836.124,73.54984842241524
836.242,87.9549288504934
836.36,94.46477118333351
836.478,104.7910637326239
836.596,114.45588442044232
836.715,116.44191722947292
836.833,119.27989809045158
836.951,127.70056293411413
837.069,129.75932301587204
837.188,147.90466318421014
837.306,149.09848820103326
837.424,166.35984568538908
837.542,181.03678758532948
837.66,190.9899199614605
837.779,197.6201086146479
837.897,197.09964791718602
838.015,192.74715258768953
838.133,192.0024494659852
838.251,187.02917491570938
838.369,194.81347612300942
838.487,199.1769981095302
838.606,201.05913481466553
838.724,198.23824121677052
838.842,200.2788194803473
838.96,199.132384756911
839.078,197.7573786049031
839.196,203.96505643557924
839.315,215.91039660391772
839.433,225.8254337419532
839.551,229.38116352068133
839.669,227.10572446824054
839.787,232.2995494850637
839.905,224.83623164474392
840.023,216.28027311178323
840.142,211.26976912427713
840.26,208.08523916274493
840.378,201.06434556484908
840.496,196.61228313578448
840.614,194.12385707035622
840.732,202.08564745514428
840.85,201.7625893550839
840.968,199.7668039822962
841.087,196.99093202942186
841.205,192.75705141853894
841.323,183.34135262583783
841.441,179.22695253443564
841.559,175.5826823131633
841.677,190.5782389317177
841.795,193.56167433815077
841.913,193.9632915627656
842.031,200.7025711250427
842.149,214.4366558821249
842.267,221.52658479505118
842.385,233.80785569931936
842.504,242.860555175016
842.622,259.1193152567732
842.74,258.81010997056507
842.858,254.23164061509294
842.976,255.25836606481568
843.094,256.52491835436535
843.212,248.2252368776813
843.33,256.2320489074909
843.448,254.275224573664
843.566,257.83701495845185
843.684,259.0282425726769
843.802,259.4454442128758
843.92,259.58385797428673
844.038,257.0590682724943
844.156,253.83644307286636
844.274,260.3038611632817
844.392,256.8604567428744
844.51,262.4291735345884
844.628,264.0359855643976
844.746,263.8973430487521
844.864,259.7292633036692
844.982,248.91789351529627
845.1,229.54635056675
845.218,212.07783792123394
845.336,191.13919540558817
845.454,168.87501176440134
845.572,140.14416145654803
845.69,118.26785660324012
845.808,109.26254742092792
845.926,96.67628585766322
846.044,84.60344420781836
846.162,86.08817831554913
846.28,80.15087166167552
846.398,63.35780216520432
846.516,48.04319528185876
846.634,33.10046873154414
846.752,29.882562377078134
846.87,22.25736045945225
846.988,15.178715680108748
847.106,12.071747600709651
847.224,1.862905906466528
847.342,-7.583887661433897
847.46,-6.001211998437499
847.578,-12.359488828919009
847.696,-6.232983192481029
847.814,-4.30479876546468
847.932,-5.033637091218406
848.05,-6.883408241422037
848.168,-4.591006834184854
848.285,-4.076248304175151
848.403,2.7358006907059154
848.521,2.078713037151055
848.639,9.167430531748003
848.757,14.339706903708729
848.875,18.575584424733442
848.993,27.47056959640546
849.111,40.87278515355986
849.229,50.476144639729064
849.347,63.579703843513
849.465,73.39275319007723
849.582,76.24368676062143
849.7,75.36320817507026
849.818,76.5791687283303
849.936,72.53279161925273
850.054,77.12191234567297
850.172,82.41146597252595
850.29,94.29236159072096
850.408,102.61221824787714
850.525,104.90350347646202
850.643,104.30041641067456
850.761,118.78390943146724
850.879,115.86307344793104
850.997,125.05132837348575
851.115,128.0551677146248
851.233,136.81744861420552
851.35,139.61609315015005
851.468,140.6121402834971
851.586,142.37788438654107
851.704,160.44766717354176
851.822,172.25072732568424
851.94,192.66114024138545
852.057,217.96361906100861
852.175,246.84128066767067
852.293,276.46555363280027
852.411,301.73254185250113
852.529,334.992028876557
852.647,367.42063808159116
852.764,397.8751879018222
852.882,426.876394195349
853.0,456.5261209823759
853.118,477.38017677373193
853.236,486.88618061703585
853.353,488.421621689777
853.471,486.296456701912
853.589,477.5929367356921
853.707,464.6721007521562
853.824,448.1815677989233
853.942,432.56549372014933
854.06,414.5303720223279
854.178,382.78702521628145
854.296,358.8315571981136
854.413,332.76007186392854
854.531,310.56391120506805
854.649,278.50108387954094
854.767,245.077217592975
854.884,212.75032100337884
855.002,174.1593551497137
855.12,133.8870040146635
855.238,105.80512907008944
855.355,83.36740996967133
855.473,69.4067471463094
855.591,51.56643033903117
855.708,41.497057508775924
855.826,27.92730592997618
855.944,10.396015531627889
856.062,-0.40780934778136047
856.179,-17.767742438199875
856.297,-26.112512914572818
856.415,-30.91284425500768
856.532,-35.70626960769491
856.65,-39.663678341227765
856.768,-45.34729815173056
856.886,-49.685586783359255
857.003,-49.584919385652604
857.121,-49.193266749705174
857.239,-42.73363013885498
857.356,-36.14002626297166
857.474,-39.823429852437854
857.592,-43.712073454388225
857.709,-41.4374252858051
857.827,-36.48555443510675
857.945,-27.816078233355782
858.062,-17.82050583388892
858.18,-6.160126422307195
858.298,-0.2607786348750558
858.415,1.6667244123318907
858.533,1.554371745448611
858.651,7.450489115170138
858.768,12.720112265164568
858.886,11.696093766469064
859.003,8.04317812914032
859.121,8.357324228106185
859.239,3.0380516578024617
859.356,1.312661110501859
859.474,0.8159855274916796
859.592,4.899294685153606
859.709,9.524984146986306
859.827,1.0503039685705766
859.944,-4.40454076020901
860.062,-7.524091193261166
860.18,-18.1195425251698
860.297,-17.984342116634288
860.415,-14.261415940797914
860.532,-16.39662619872142
860.65,-7.484173822854035
860.768,-4.039184946666959
860.885,1.0523288915931142
861.003,8.931180556291274
861.12,15.00996142210568
861.238,25.534096090797693
861.356,24.81833643728138
861.473,26.990473718541992
861.591,29.20654329544685
861.708,26.494757681599467
861.826,23.501273429564083
861.943,26.333079282847415
862.061,20.097795741706197
862.178,18.6567273388747
862.296,14.931287931577547
862.414,26.667368087760565
862.531,32.167007075322495
862.649,32.094047924094745
862.766,35.83745909682704
862.884,36.381992777410744
863.001,25.37833766109651
863.119,19.46069244875884
863.236,15.881739987045023
863.354,15.45019484617563
863.471,23.826781662452127
863.589,28.52274585131674
863.706,33.95416246786688
863.824,41.1371879261216
863.941,45.660427840034195
864.059,47.41432319657675
864.176,53.077138033766474
864.294,46.16023544551213
864.411,45.077958350438976
864.529,35.956606185265485
864.646,26.604438902788587
864.764,28.926307586863807
864.881,32.20590553465602
864.999,41.502305053176514
865.116,59.064676074001525
865.233,76.6543640753502
865.351,90.55393816812833
865.468,95.90610134087936
865.586,105.25653291189889
865.703,114.37839305434716
865.821,119.27081596735832
865.938,127.75111766824827
866.056,134.01843235615132
866.173,130.26583362414084
866.29,128.31410069299625
866.408,126.34418594366991
866.525,126.13704175711429
866.643,122.60695384761507
866.76,122.11842437967437
866.878,126.65240573424452
866.995,127.85738275981038
867.112,124.63378835680484
867.23,128.19980434340982
867.347,128.52512768932218
867.465,130.3413601261436
867.582,129.65196485733725
867.699,129.18075140671266
867.817,135.18313102968114
867.934,142.1153807825196
868.051,147.06234915007673
868.169,149.0326941410104
868.286,157.60130753021252
868.404,167.13095988045364
868.521,180.87879404887673
868.638,189.0863684770402
868.756,203.26710307836396
868.873,212.33528356713367
868.99,218.4822519346912
869.108,227.24307311610158
869.225,248.54934884296648
869.342,270.33354664775356
869.46,303.7056232404195
869.577,322.28722364260943
869.694,349.5294301054055
869.812,362.291982888548
869.929,362.5904664076211
870.046,362.34262958037385
870.164,361.2774767358105
870.281,357.9837524626756
870.398,356.3610238605365
870.516,343.8525809726832
870.633,347.1822333229253
870.75,343.03482939611115
870.867,326.9298497117213
870.985,318.32010812256937
871.102,302.650626273677
871.219,284.40278944642967
871.337,266.5644764287061
871.454,249.11317639799546
871.571,238.77789368330218
871.688,228.40278412878212
871.806,207.70559665218425
871.923,195.34693731411448
872.04,177.7103558981226
872.157,166.35862296697914
872.275,152.38957401851974
872.392,141.60407485360986
872.509,129.31035058047493
872.626,114.62788171859543
872.744,98.4778803891836
872.861,90.44216477405755
872.978,81.1423798948623
873.095,73.06943484250691
873.213,62.00168459534646
873.33,56.16683478108629
873.447,48.64000307532376
873.564,38.51040847444289
873.681,31.077140874618653
873.799,22.086952123727762
873.916,14.950318557462367
874.033,8.95008634262693
874.15,6.656277733066426
874.267,0.3790314504729988
874.385,-0.7687815940386007
874.502,-2.5181391163905227
874.619,-4.399765625607028
874.736,-6.613808793340688
874.853,0.5457390435871288
874.97,3.68944564161531
875.088,5.3312407988318204
875.205,-0.936801677760366
875.322,3.1126722418411052
875.439,-0.1431071342306942
875.556,0.010272301945448703
875.673,4.831601012859989
875.791,10.040467104948624
875.908,6.619898928131728
876.025,2.1364363801646977
876.142,-0.17966105067778715
876.259,2.9679636812585786
876.376,-0.7809912715436469
876.493,4.436844368835822
876.61,7.251614712084624
876.728,10.314170611562428
876.845,10.837724266226095
876.962,5.954951400707005
877.079,4.680500264023051
877.196,-0.3042610968026229
877.313,0.854072555063472
877.43,7.692441136292775
877.547,9.992186947208287
877.664,17.210447528889116
877.781,16.878864107061723
877.898,14.565368427213386
878.016,8.554165958080219
878.133,8.281804715014278
878.25,8.496223777868183
878.367,5.351799837750939
878.484,-2.902297830270959
878.601,-7.397139617846417
878.718,-14.929502065913173
878.835,-20.980344087042177
878.952,-19.971647032370576
879.069,-7.589739314400887
879.186,-7.1531844823625255
879.303,-1.467825425281763
879.42,-4.853935757031286
879.537,-2.1716306664268865
879.654,-13.225044354544286
879.771,-31.02181714025682
879.888,-14.03594380070273
880.005,35.604632016543434
880.122,109.0386102971739
880.239,206.2659910411886
880.356,327.28677424858756
