wavelength_nm,intensity
792.446,300.94754642836926
792.565,248.61663733746013
792.684,204.01646417728696
792.803,167.14702694784972
792.922,138.00832564914816
793.041,114.02737326819579
793.16,106.45507889590141
793.279,101.77888841971097
793.398,101.80053344135595
793.518,107.2455550863776
793.637,120.55291439373688
793.756,145.14165898248143
793.875,171.49836893919135
793.994,187.9078927487151
794.113,192.6239100647324
794.232,193.04122608204852
794.351,183.03689707771954
794.47,166.3321351729577
794.589,145.365901406724
794.708,132.00226504308762
794.827,123.69144253226506
794.946,118.25681049763297
795.066,113.02044686126932
795.185,118.5719620127845
795.304,131.98408322490573
795.423,137.10183214265467
795.542,139.58841222923485
795.661,136.86113950196216
795.78,133.004862445685
795.899,135.01265465347723
796.018,126.76070660152917
796.137,116.38841222923472
796.256,112.91135595217843
796.375,103.53906157988405
796.494,97.22304426386677
796.613,94.18321742403998
796.732,93.08538192620449
796.851,96.89923474005741
796.97,92.26893170975444
797.089,81.96503560585833
797.208,83.0611395019622
797.327,79.53559837642106
797.446,85.11914815997082
797.565,96.33732997815258
797.684,98.93213517295777
797.803,106.32520876603138
797.922,106.92347716429978
798.041,95.7537801946028
798.16,90.8091914500141
798.279,80.00919145001416
798.398,75.04555508637779
798.517,77.40139924222188
798.636,76.3589749997976
798.755,89.05421309503566
798.874,94.42304426386684
798.993,98.14339058421322
799.112,111.31481915564186
799.231,118.8966373374601
799.35,115.84468928551205
799.469,114.4819187227414
799.588,103.913953354776
799.707,94.67412651494912
799.826,87.61871525953782
799.945,78.93992738074992
800.064,84.54252478334732
800.183,94.83083647165901
800.302,98.65681049763296
800.421,100.89230833313079
800.54,96.9710962119187
800.659,103.80832564914814
800.778,117.66113950196196
800.897,122.50875854958095
801.016,135.48451612533856
801.135,149.6412260820485
801.254,154.03776287858528
801.373,153.18754642836888
801.492,151.40139924222171
801.611,166.7355983764209
801.729,179.62650746733
801.848,192.01265465347717
801.967,192.77023041105298
802.086,183.39187543269804
802.205,172.2741265149491
802.324,154.6940399348625
802.443,128.44555508637765
802.562,106.39966764049018
802.681,89.65507889590141
802.8,72.5360962919666
802.919,48.647905470086116
803.038,39.15167973915784
803.157,29.57887386529751
803.276,23.044565506470242
803.394,5.610289761490012
803.513,2.1637193623365203
803.632,0.7322280659241684
803.751,-10.184414070797999
803.87,-21.083905667013482
803.989,-23.064068348824122
804.108,-34.53782078227489
804.227,-28.756760387225384
804.346,-39.861243391875036
804.465,-28.83067622277474
804.583,-18.415656513272562
804.702,-11.773367833269315
804.821,-10.984040723521716
804.94,-12.015734097946194
805.059,-12.380361581505852
805.178,-2.007538495840839
805.297,-5.155082565526286
805.416,3.035681172719732
805.535,13.634095592920197
805.653,23.124692759005306
805.772,29.167398811171303
805.891,34.39887119277354
806.01,42.21542882128307
806.129,61.27696970606736
806.248,85.10180373463838
806.367,112.21625222873271
806.485,133.37476678851735
806.604,157.71856273358338
806.723,177.85283486912567
806.842,183.65117626873732
806.961,190.60709342592475
807.08,189.6452616653631
807.198,193.50767232904394
807.317,191.64281026545194
807.436,187.32946335337493
807.555,182.7191467443281
807.674,183.32787775432877
807.793,179.48292911064965
807.912,185.06222289121288
808.03,195.6363218665814
808.149,212.1506805822097
808.268,235.47975791255666
808.387,261.220090654159
808.506,277.84267447801244
808.624,299.1379855745929
808.743,296.87572091359743
808.862,292.05847789762345
808.981,278.97283661325133
809.1,258.4551606968447
809.219,234.84744149039494
809.337,203.5548737990968
809.456,182.665769311262
809.575,168.916924563687
809.694,155.26591531394735
809.812,157.36815281745444
809.931,157.8348924854639
810.05,174.1708962227374
810.169,191.36837182148284
810.288,199.64983010421105
810.406,218.01353946919036
810.525,226.82400208092284
810.644,225.52191058010123
810.763,233.27696193642248
810.882,231.12292238365296
811.0,241.41477027677092
811.119,255.08930215257297
811.238,259.5456522101932
811.357,265.58988105569205
811.475,261.22112288820387
811.594,255.70604437439528
811.713,259.50525157487226
811.832,258.54168821257866
811.95,260.7079949801552
812.069,261.8067692801991
812.188,260.1981842728835
812.307,250.92293259890133
812.425,244.02517010240814
812.544,234.0131218916291
812.663,221.6599481397244
812.782,216.41586529691045
812.9,203.79169587401003
813.019,203.01601129959445
813.138,200.99790248275485
813.257,204.99537808149987
813.375,230.42921731660863
813.494,244.13751542617638
813.613,264.0233027132334
813.731,280.13852722972786
813.85,288.9126262050969
813.969,296.47806717180794
814.088,302.76645186146277
814.206,311.2184729147539
814.325,323.78131647886755
814.444,330.3216492204701
814.562,336.6152287153194
814.681,341.43175193311265
814.8,350.2881019907328
814.918,342.21717932108027
815.037,349.1670358722069
815.156,345.5333426397838
815.274,344.3438052515165
815.393,346.96119427017567
815.512,351.7067218169734
815.631,365.16307187459375
815.749,380.9960453088376
815.868,387.63075034481324
815.987,396.0957584110919
816.105,394.0672599838642
816.224,388.7868135046885
816.343,371.3280120471578
816.461,349.5332798536963
816.58,324.18616670785354
816.698,305.57411849707563
816.817,305.2988668230943
816.936,303.04526017075807
817.055,308.6782336050019
817.173,312.5908607188994
817.292,304.3788125081216
817.41,294.79793312851245
817.529,279.2326381644874
817.648,263.3366072697262
817.766,262.1107062450948
817.885,260.25103898669727
818.004,257.55673969366785
818.122,253.61741875561682
818.241,253.93437487384304
818.359,260.1205950613333
818.478,260.77521351722174
818.597,267.03613866140813
818.715,262.26855007065467
818.834,281.30958158663793
818.953,293.4450808991295
819.071,394.52066864590245
819.19,513.008131706447
819.308,626.7421748512152
819.427,710.9101932449248
819.546,748.6896760650651
819.664,702.2791077952909
819.783,627.0228489279141
819.901,520.9312392847627
820.02,469.23140192950177
820.138,391.1811190427795
820.257,331.3113734724283
820.376,290.5564681187923
820.494,257.4639004274938
820.613,241.49254485740732
820.731,238.8190247851564
820.85,255.04160860900942
820.969,267.18194135061145
821.087,277.9317979017371
821.206,298.81585358706195
821.324,325.88086165333925
821.443,350.7519303256772
821.561,370.519102894119
821.68,370.9771845534699
821.798,358.36600214355695
821.917,334.29248207130627
822.035,307.8059749860685
822.154,286.1774765588393
822.273,272.70828549091755
822.391,266.37589095979206
822.51,261.8313752165454
822.628,251.43664302308224
822.747,244.73108831879665
822.865,243.88960287858038
822.984,235.58145077169752
823.102,225.5174545089705
823.221,227.769475562261
823.339,224.5262585203135
823.458,229.60165619698068
823.576,229.1376599342539
823.695,238.2286420265055
823.813,245.55858515771803
823.932,244.990692791095
824.05,242.97085237252404
824.169,247.62114182408305
824.287,247.49480789901884
824.406,243.96414496962564
824.524,241.43867684542755
824.643,235.2777108857317
824.761,226.41631202560305
824.88,220.37742398798525
824.998,219.73074374257538
825.117,221.21306782616983
825.235,232.35859537296773
825.354,234.60282421846702
825.472,239.00116561807886
825.591,248.9189875371712
825.709,251.87403889349304
825.828,253.26805128877598
825.946,245.68544030743573
826.064,233.42663884990503
826.183,217.65961228414943
826.301,199.91423074003896
826.42,186.3480699751493
826.538,190.01307804142857
826.657,199.5958350254566
826.775,198.620150451043
826.894,201.57779920996262
827.012,193.78653021996433
827.13,182.83941707412203
827.249,169.0316978676738
827.367,154.05947649672356
827.486,148.33314257166097
827.604,151.87087791066745
827.723,144.7748470159077
827.841,143.16279880513048
827.959,146.93083717443977
828.078,163.60623485110827
828.196,184.09115633730065
828.315,207.87218171959688
828.433,231.06359671228265
828.552,247.334665384622
828.67,248.4827903340177
828.788,223.61186766436583
828.907,188.57745581452042
829.025,156.03154613098025
829.143,129.09330404666972
829.262,102.74674210239093
829.38,81.28590438257876
829.499,68.80362617030232
829.617,62.46249956367872
829.735,50.161916064780186
829.854,39.6193591266002
829.972,50.61489512859872
830.091,67.49099154860366
830.209,77.69721552578497
830.327,95.91525837201303
830.446,113.41236772177305
830.564,131.70498966407553
830.682,153.78507518247244
830.801,171.8859399216485
830.919,192.45173972575952
831.037,199.30671701904814
831.156,186.2681878188302
831.274,170.89372788268122
831.392,145.22576145302554
831.511,133.64177770735242
831.629,123.04740435128944
831.747,114.47294441513972
831.866,125.05519443569986
831.984,133.10930592812144
832.102,135.99545205257772
832.221,134.5058406012764
832.339,130.3824629162089
832.457,134.35259172464805
832.576,123.56341317377999
832.694,110.61653990240256
832.812,107.47955834946
832.93,101.31843161759971
833.049,91.25680683247947
833.167,93.04960821636018
833.285,97.86572107079058
833.404,107.80054588916056
833.522,119.01972130042432
833.64,128.92189463187117
833.759,136.98770432695437
833.877,153.76520233372577
833.995,167.68815488595163
834.113,189.13751436458443
834.232,199.14531540165902
834.35,208.64142812704546
834.468,211.3955495104407
834.586,225.2778094219745
834.705,224.94535071878983
834.823,232.0128920156051
834.941,219.942770974758
835.059,209.43455469581556
835.178,196.9808838714186
835.296,180.44842516823374
835.414,168.9982175473
835.532,180.75233893069503
835.651,185.72810533573522
835.769,196.15755139445497
835.887,196.3809368471141
836.005,217.59826169371252
836.124,237.21298913771352
836.242,254.11516246916042
836.36,268.77491155818313
836.478,295.93076454330986
836.596,311.2156218574411
836.715,320.380132851226
836.833,322.5680204683878
836.951,331.39227172191306
837.069,335.8745316334471
837.188,345.14640193459127
837.306,352.376713794177
837.424,375.64771829445544
837.542,384.0494587254697
837.66,388.1931904984755
837.779,398.89622963078864
837.897,397.3655025293356
838.015,405.8841260772334
838.133,404.16205698443866
838.251,402.9984294500856
838.369,411.1560140369446
838.487,413.84260295280785
838.606,409.2079797474589
838.724,412.45474182349506
838.842,404.1690363670638
838.96,405.1828980101999
839.078,394.9110453676218
839.196,391.81235289820387
839.315,402.2140933292187
839.433,410.92492466932435
839.551,398.5188728925467
839.669,391.89377349672134
839.787,388.5414013736231
839.905,385.44097730247296
840.023,383.30592119669063
840.142,383.9838521038954
840.26,388.71979166910876
840.378,387.25832863691926
840.496,372.718077725942
840.614,365.16224239938015
840.732,358.50857157498274
840.85,345.58390507958967
840.968,334.56919529415325
841.087,339.893013647245
841.205,337.29735148085643
841.323,336.6705204832989
841.441,337.6367630788152
841.559,343.41166368298957
841.677,352.7891616897614
841.795,357.6064865363601
841.913,371.535499694647
842.031,398.18918817760937
842.149,405.524261941957
842.267,408.8913703383394
842.385,411.16756964381284
842.504,411.6359767414941
842.622,417.745076479868
842.74,419.3260376901032
842.858,428.81695561029505
842.976,432.3477003703139
843.094,422.3407827926702
843.212,417.49663577779734
843.33,411.21439352482935
843.448,399.24037638008656
843.566,391.23432460330935
843.684,382.1858485841079
843.802,385.4525240800581
843.92,382.71833377514247
844.038,385.82916511524843
844.156,399.0205159358739
844.274,411.9910875357201
844.392,420.2525682264753
844.51,421.5088541120358
844.628,417.8655728980292
844.746,425.59631765804875
844.864,423.6569325479385
844.982,414.179885100166
845.1,394.5521883017443
845.218,381.1876949665259
845.336,352.4690890771949
845.454,315.74961738699795
845.572,275.94010240675766
845.69,252.08469998062978
845.808,226.3193408445453
845.926,208.4674016218808
846.044,188.06741045116428
846.162,187.43971365274223
846.28,172.1176445599478
846.398,159.00769667927455
846.516,138.3583548592072
846.634,126.98347191359875
846.752,111.783480742882
846.87,104.95491814359369
846.988,98.25535987330963
847.106,93.5258008656361
847.224,81.45109017142764
847.342,68.78168381964068
847.46,56.63096494306957
847.578,47.011848739201405
847.696,34.52298205801897
847.814,26.498998699521216
847.932,29.792159125227506
848.05,31.222144427673687
848.168,39.7297135644336
848.285,49.40665326366259
848.403,56.309385362090005
848.521,63.035364161862475
848.639,62.762101415991964
848.757,69.24135043596799
848.875,78.44410117142516
848.993,90.62562954272616
849.111,103.93184989104466
849.229,108.44866562771648
849.347,111.9976402299103
849.465,118.6643637498531
849.582,108.4877972265059
849.7,107.3579839499119
849.818,103.20479404994123
849.936,107.67584657421307
850.054,106.51573026731592
850.172,103.50799491279963
850.29,112.04657990460356
850.408,114.12542463666713
850.525,116.24063300509444
850.643,127.24501886269923
850.761,142.45546532636467
850.879,163.8892884134068
850.997,169.4850162623535
851.115,179.27035450091068
851.233,182.79681828059336
851.35,184.3120266490206
851.468,185.94671553692825
851.586,194.57447801790948
851.704,217.6645781612282
851.822,249.35034930021794
851.94,284.8352546383419
852.057,336.5790344353403
852.175,385.19900470852906
852.293,440.59213515487806
852.411,468.2631876791489
852.529,500.77060383978335
852.647,540.4364615588593
852.764,570.3464751220913
852.882,599.0253198541546
853.0,630.1422598243133
853.118,662.1102820455543
853.236,680.1579579464492
853.353,678.4125602542707
853.471,681.7805824755121
853.589,670.3183016664505
853.707,635.8923844937526
853.824,595.1764240310117
853.942,564.9773466851539
854.06,546.6267541877808
854.178,514.7203175345633
854.296,494.92643499390005
854.413,477.5420762627604
854.531,444.3447305186337
854.649,393.1300687571911
854.767,339.6539351342769
854.884,291.6531261866873
855.002,248.69387568065628
855.12,201.24717928717922
855.238,161.8411755343949
855.355,130.26028000671872
855.473,103.78847538813346
855.591,74.12503059072915
855.708,46.06506673231442
855.826,25.343982906336393
855.944,14.790647299003165
856.062,1.6891735203461669
856.179,-3.446463510617543
856.297,-12.326777431354753
856.415,-8.807996624333398
856.532,-10.077548799073076
856.65,-21.842205023418025
856.768,-23.545048323206995
856.886,-26.215362391110716
857.003,-30.167253540037663
857.121,-30.15172388589228
857.239,-38.6061435149536
857.356,-31.477951503966207
857.474,-35.00289628455857
857.592,-34.89437412839288
857.709,-28.328827437095477
857.827,-12.573549579871237
857.945,-1.3618785760363004
858.062,12.272226942904771
858.18,22.794902848711597
858.298,37.05816713736958
858.415,31.356631123768537
858.533,29.60294700055968
858.651,26.21503781640618
858.768,27.672539340040053
858.886,25.7245155925894
859.003,28.794301292321798
859.121,34.3515044451303
859.239,34.164553635484914
859.356,27.266757966527468
859.474,21.60833390288931
859.592,12.918581897959683
859.709,6.268626014060894
859.827,4.278247243853107
859.944,4.203604487199438
860.062,4.828857358110145
860.18,-2.7651477240276137
860.297,4.498276369471349
860.415,7.10257532181507
860.532,5.837805331481938
860.65,7.1508026505096485
860.768,17.75925717325421
860.885,34.223123370748475
861.003,43.59508528255195
861.12,53.6900582614458
861.238,66.10469227761482
861.356,69.86847975286258
861.473,63.056476395584596
861.591,55.18646438029805
861.708,56.82814067669973
861.826,55.632587535872105
861.943,48.04222920023922
862.061,43.53152454425991
862.178,41.425148892609556
862.296,39.615742937928786
862.414,37.192484169395094
862.531,43.00732063895661
862.649,54.654191740552704
862.766,56.506052285195125
862.884,52.13496171484864
863.001,53.77785797352642
863.119,53.61794278867549
863.236,55.13966002615469
863.354,60.152938114477244
863.471,65.07977013139126
863.589,73.49966834933359
863.706,65.99035687612306
863.824,71.34857787044498
863.941,83.77086812883599
864.059,87.9481367422053
864.176,90.75570838587753
864.294,94.20483847110816
864.411,97.07128457365498
864.529,89.91521985369104
864.646,74.75396032853246
864.764,82.49226790294108
864.881,88.04962309639734
864.999,89.46758435045975
865.116,93.98338110235754
865.233,119.36151551659299
865.351,143.7206023117808
865.468,154.87016529744474
865.586,169.40674127012167
865.703,188.98833888782022
865.821,194.5976421332245
865.938,193.79136096304438
866.056,189.86733087511539
866.173,185.22035706424268
866.29,172.59069927068606
866.408,173.5662362823242
866.525,184.7322494844385
866.643,190.42380381209404
866.76,196.05302047741196
866.878,197.47963974013248
866.995,190.22314211973617
867.112,175.6203241530196
867.23,167.9378525066493
867.347,180.08135488625294
867.465,188.1452035862028
867.582,187.85407393117447
867.699,200.3707364839384
867.817,207.46835141765467
867.934,208.47852046392495
868.051,211.5778669993726
868.169,211.84258150018815
868.286,222.20166829537567
868.404,224.75469448450238
868.521,227.90425747016593
868.638,246.22005422206317
868.756,267.00165183976134
868.873,287.77459144880163
868.99,306.5509942613054
869.108,329.0927650391772
869.225,357.7453583278715
869.342,390.54946676808095
869.46,421.4522765069918
869.577,457.2338741246904
869.694,485.02586135277863
869.812,502.8879784509968
869.929,512.4262860254054
870.046,527.0953295305499
870.164,523.4223816937031
870.281,522.7061438135663
870.398,514.4280011715249
870.516,506.14552952515453
870.633,489.0388154545418
870.75,477.56673341856117
870.867,462.78469467262386
870.985,448.27971220374275
871.102,420.80936176949365
871.219,405.1139031101362
871.337,390.2859769183113
871.454,376.9480940165297
871.571,358.0309903355273
871.688,336.8671334077717
871.806,308.89721587395536
871.923,283.04504725788786
872.04,253.01798686692834
872.157,234.52772301276528
872.275,226.5205760417192
872.392,217.6467624040066
872.509,207.70887950222493
872.626,188.3320355614823
872.744,168.20107906662724
872.861,139.8744515761012
872.978,112.240464778216
873.095,98.30171607556889
873.213,91.16296737292194
873.33,78.34629659235307
873.447,78.05689853905693
873.564,70.45927537753568
873.681,67.3871933415556
873.799,50.74533676011043
873.916,43.89573968805186
874.033,39.664827706977626
874.15,32.283927829707714
874.267,14.981118783308162
874.385,6.155598111377423
874.502,-1.0013320039500204
874.619,-1.7649356919440837
874.736,-11.148545349255638
874.853,-4.6677447776253596
874.97,-2.0137446371276866
875.088,2.740642903353801
875.205,2.0824479692378874
875.322,0.5196180564574222
875.439,1.374380135076868
875.556,2.621165799393178
875.673,5.5323427655945085
875.791,8.648116821798801
875.908,4.244096118262913
876.025,4.0640223053728635
876.142,3.7937181999548635
876.259,-0.08475231096588587
876.376,-5.585729469880894
876.493,-1.8224510692020446
876.61,2.390147131179544
876.728,-2.245185955422914
876.845,0.0027001821457877107
876.962,0.875274390329206
877.079,8.502161293862388
877.196,12.269301678170358
877.313,3.918691719193193
877.43,6.457221505191452
877.547,3.1613644115806325
877.664,-1.2110011075951888
877.781,-1.4150993713694957
877.898,-6.741541948608828
878.016,-5.988405661592222
878.133,-5.08507616358674
878.25,-10.602244238144177
878.367,-3.3939770550176793
878.484,-6.199974865517982
878.601,-6.146633532373251
878.718,-2.360576061135351
878.835,-4.130620298262552
878.952,-5.5206759886422105
879.069,-5.6366586589914505
879.186,-7.595020640348771
879.303,-6.234826576167564
879.42,-13.486394419748787
879.537,-14.155949766142385
879.654,-14.31746780276898
879.771,-19.995166613628335
879.888,-18.708828421907224
880.005,-18.14367636125314
880.122,-17.02704808379898
880.239,-15.358943589544772
880.356,-13.139362878490509
