wavelength_nm,intensity
792.446,189.46862832891577
792.565,169.22620408649158
792.684,150.76256772285524
792.803,134.07771923800678
792.922,119.171658631946
793.041,102.98204824233562
793.16,87.88594434623177
793.279,85.06256772285516
793.398,85.21061967090705
793.518,92.68421274450009
793.637,105.27295733324465
793.756,121.73789239817967
793.875,139.5673296276169
793.994,150.29893135921864
794.113,152.77165863194597
794.232,145.73875819904555
794.351,126.9231737834611
794.47,107.7673296276169
794.589,97.48594434623163
794.708,84.06689672718399
794.827,82.50932096960827
794.946,81.89113915142653
795.066,86.0608361211235
795.185,91.05823871852607
795.304,93.61061967090703
795.423,93.03053309082046
795.542,93.40715646744383
795.661,87.32403958432698
795.78,84.42447248475987
795.899,79.96213482242221
796.018,81.91018677047416
796.137,79.70499196527935
796.256,75.00888806917551
796.375,78.32490538519284
796.494,75.02274088302829
796.613,72.69546815575558
796.732,72.52663698692436
796.851,78.6798837401711
796.97,78.2417885020759
797.089,74.72057638086375
797.208,70.98118244146984
797.327,67.5601491251976
797.446,56.68647135310685
797.565,50.45185545409312
797.684,55.33972349389186
797.803,71.1031353530008
797.922,74.07041643230774
798.041,79.49927020720244
798.16,75.29972195052106
798.279,60.33888063730767
798.398,46.43864538470031
798.517,47.80767420135701
798.636,56.98189782320836
798.755,75.27387036280862
798.874,76.21432775089394
798.993,83.96430894850306
799.112,82.25368408550608
799.231,77.85561333506314
799.35,72.72420925128677
799.469,75.24648482119015
799.588,72.37915000148308
799.707,71.16030003026114
799.826,61.06006477765414
799.945,57.1139420791598
800.064,50.230157043003075
800.183,52.85026811074232
800.302,53.98553069363294
800.421,64.02468938041943
800.54,69.00410780746552
800.659,80.93937039035582
800.778,88.02355072216409
800.897,93.72591287215425
801.016,98.68368627755588
801.135,106.9799878214857
801.254,114.03126772039394
801.373,126.04012337687786
801.492,132.90612189050455
801.611,155.79289962491043
801.729,156.5645258441649
801.848,167.57338150064868
801.967,165.63418520908056
802.086,158.9010495235728
802.205,145.28566275581383
802.324,125.65295997073892
802.443,109.3561879215948
802.562,93.81447274577633
802.681,59.255551508337355
802.8,49.20803707621674
802.919,32.11106291821241
803.038,19.467426087722316
803.157,11.053225361169236
803.276,12.523172590337364
803.394,13.562589262154605
803.513,1.2762440839027271
803.632,-7.623763582254233
803.751,-9.275926964984292
803.87,-20.561504430608764
803.989,-26.519816287547897
804.108,-26.50650412055151
804.227,-22.39082279427926
804.346,-22.2589629522272
804.465,-23.094393721215337
804.583,-20.250278613547707
804.702,-15.730950420424444
804.821,-15.218789849518842
804.94,-13.544454093187111
805.059,-15.99470824393865
805.178,-13.724320369643063
805.297,-8.031453961025315
805.416,-1.978103791789582
805.535,2.7991304596410203
805.653,9.236758516062539
805.772,16.969258635697962
805.891,28.3202653107533
806.01,38.083566460348905
806.129,56.93711227646443
806.248,82.2384577377361
806.367,104.71141319516009
806.485,122.01636380797049
806.604,138.68062178008816
806.723,152.41500962233567
806.842,164.28705980224547
806.961,177.7530493760947
807.08,185.18527271617768
807.198,184.27723631600077
807.317,179.70599645262047
807.436,170.31484316932676
807.555,162.39555135789448
807.674,150.78448465468722
807.793,144.26432704238903
807.912,153.62642051234184
808.03,164.56860056238116
808.149,181.5081832098229
808.268,207.80707321657192
808.387,225.61159092894874
808.506,240.80831643353343
808.624,245.07603760911377
808.743,243.93250337343895
808.862,232.7768479256429
808.981,214.65928771594213
809.1,198.03783140234515
809.219,181.181743054116
809.337,160.67543825567043
809.456,149.4046312927226
809.575,133.62300181895225
809.694,131.1998139036235
809.812,127.80779481946367
809.931,132.16988828941646
810.05,145.9570899844777
810.169,165.0655038007511
810.288,177.94707779018466
810.406,187.55679030775673
810.525,177.87299633182238
810.644,172.34158330826884
810.763,169.62488889943404
810.882,170.0856836680884
811.0,178.80621869648297
811.119,184.7432039413277
811.238,190.32001602599922
811.357,205.25094066478314
811.475,206.5420384637403
811.594,214.8400626696239
811.713,217.2618963993172
811.832,217.28805913333954
811.95,217.48651623965628
812.069,202.57588243688227
812.188,195.04100620986569
812.307,200.37799145471044
812.425,197.11237929695776
812.544,195.69438618682398
812.663,186.54652294682
812.782,182.01251252066882
812.9,177.34863196464732
813.019,172.45011937399372
813.138,172.79316522489844
813.257,183.7682457078379
813.375,185.73639978385103
813.494,192.25087420618445
813.613,198.12379018695947
813.731,200.95687932790761
813.85,216.88001175889883
813.969,230.11742990417565
814.088,244.06740216200672
814.206,253.33858654105
814.325,258.7058748161972
814.444,274.59004620822765
814.562,283.51404444008523
814.681,286.3609863948867
814.8,300.9793569211167
814.918,302.6003248499442
815.037,303.81696377444274
815.156,303.0665031318416
815.274,294.18444075763864
815.393,292.7629844440417
815.512,289.7484545373713
815.631,293.4577341545103
815.749,316.17047697511265
815.868,328.91612022861557
815.987,344.22366824402326
816.105,345.3043764325912
816.224,328.30543094150556
816.343,312.7757495196841
816.461,291.9014793532739
816.58,273.76573732539174
816.698,269.33302560054
816.817,263.26568184105633
816.936,269.72993981317427
817.055,269.7483103394049
817.173,259.89395359290825
817.292,253.96254056935558
817.41,242.8363223509976
817.529,229.8373768599124
817.648,217.94232747272332
817.766,215.7615637998199
817.885,222.838808784925
818.004,227.40003645401265
818.122,216.4850736469097
818.241,221.16145283114884
818.359,224.32614370369947
818.478,223.06832375373926
818.597,228.81643272441613
818.715,224.50700343983755
818.834,240.6009100849565
818.953,252.46724482377752
819.071,330.68146707425376
819.19,428.5469288851881
819.308,529.6787651142469
819.427,601.494911319169
819.546,640.1255592089813
819.664,611.2134232087435
819.783,550.8418757681726
819.901,465.7988744142192
820.02,415.45386326749616
820.138,355.2996869953454
820.257,312.1216699182471
820.376,276.02285823402974
820.494,250.13040624943778
820.613,235.67518370207526
820.731,225.40177933653098
820.85,230.8954745380861
820.969,241.02899657946801
821.087,252.0110034693347
821.206,270.15058611677705
821.324,288.4667921408427
821.443,306.6427384246486
821.561,319.61262410239374
821.68,316.3790465766758
821.798,302.4987158042046
821.917,288.0902465035948
822.035,270.29303261424036
822.154,252.67244210150932
822.273,250.30553124245782
822.391,248.72996237474814
822.51,247.32409047673548
822.628,232.539863600368
822.747,220.14351551187923
822.865,214.3108037870269
822.984,213.71012669420907
823.102,205.94494743688907
823.221,213.93388073368163
823.339,213.9054980131582
823.458,212.98101139653102
823.576,198.44786677124603
823.695,199.40216803340695
823.813,203.13309267219125
823.932,210.6241904711485
824.05,207.83390298872035
824.169,214.71634277901939
824.287,214.46285183338762
824.406,211.94182842022326
824.524,210.68054526679936
824.643,212.9621192562326
824.761,216.28005688202958
824.88,217.18414169397363
824.998,214.11506633275744
825.117,219.03560136115146
825.235,217.52756496097376
825.354,209.2281865694539
825.472,206.32188177100764
825.591,208.6086505656349
825.709,207.3871942520371
825.828,207.69560806830953
825.946,208.76073184129206
826.064,206.36351795193696
826.183,193.85028674656456
826.301,187.94657935071598
826.42,184.62209273408803
826.538,192.52790914776295
826.657,194.0467125744248
826.775,194.3447367803073
826.894,188.00553154896028
827.012,173.78234363363038
827.13,163.37647173561643
827.249,160.64852191552467
827.367,144.24005261491345
827.486,145.19002487274378
827.604,139.86813565871265
827.723,139.58434168277665
827.841,141.81569922199213
827.959,149.0375329516836
828.078,167.84724546925375
828.196,187.14007486994086
828.315,194.6675363052599
828.433,208.23569038127152
828.552,207.5068747603134
828.67,211.75901152030758
828.788,200.34967641882986
828.907,177.65982183683246
829.025,154.2037334886013
829.143,129.81704537381032
829.262,97.58516493830822
829.38,72.34811886082582
829.499,53.91164785948151
829.617,39.998115302742036
829.735,38.08758270821023
829.854,30.195067769972198
829.972,35.52364091353498
830.091,43.690573734960985
830.209,52.65913121710631
830.327,76.14649588980953
830.446,105.48515761485717
830.564,122.07871207951857
830.682,148.13422997243154
830.801,158.0011768354509
830.919,168.00665183699846
831.037,165.1064991329184
831.156,142.88426850676052
831.274,131.80576082432555
831.392,112.27617089080843
831.511,100.7509099616203
831.629,92.76417717096041
831.747,93.14281234566857
831.866,106.10326570219493
831.984,114.15982295482507
832.102,122.21724600832091
832.221,123.19241797956549
832.339,122.13122631444634
832.457,124.4198181991107
832.576,115.94650532187029
832.694,111.43682880826617
832.812,110.18342935093895
832.93,102.91271387629558
833.049,97.58398974364343
833.167,91.51846907419477
833.285,98.48151983331752
833.404,112.29132383919367
833.522,125.74355208749415
833.64,136.39491453492892
833.759,139.09303022911683
833.877,142.64222817438701
833.995,144.623460751692
834.113,149.447983372287
834.232,165.3538912742672
834.35,185.10741822386643
834.468,197.13453824705869
834.586,216.26815177674445
834.705,228.09354019820498
834.823,234.78905848979548
834.941,228.59193608874557
835.059,214.0164587093408
835.178,198.3656566546113
835.296,179.68974637477368
835.414,165.6874291685291
835.532,169.67991715708965
835.651,183.707902981148
835.769,197.41640828572568
835.887,207.09720796259757
836.005,227.6109080723697
836.124,238.72893718647055
836.242,247.20540785901287
836.36,252.5788482285248
836.478,265.5064011521494
836.596,283.2902311320511
836.715,301.6264420643337
836.833,310.63797767194114
836.951,328.80016263019814
837.069,337.8264168525245
837.188,338.0362208584007
837.306,343.0183192365712
837.424,348.05582887015294
837.542,354.2673644777604
837.66,367.8364758429434
837.779,369.6938988964381
837.897,370.6387678373786
838.015,375.3784419731244
838.133,374.14235853311277
838.251,371.4785694653955
838.369,371.3152132981111
838.487,378.1994761784459
838.606,388.0517044267459
838.724,374.74029631140974
838.842,367.8678492350343
838.96,366.6551424183991
839.078,360.4796650389933
839.196,358.6435815989812
839.315,370.49148084295166
839.433,380.31946666700867
839.551,385.44528798890116
839.669,376.3563906960751
839.787,380.8337271694827
839.905,374.8417995736263
840.023,370.0204347483326
840.142,368.83716516113446
840.26,363.01320293324375
840.378,344.4957342118466
840.496,331.83713994932384
840.614,324.23309114134656
840.732,326.27579558012235
840.85,312.34533984573784
840.968,311.2867455832148
841.087,312.11126820380866
841.205,310.6630635516751
841.323,308.02351690819944
841.441,306.4662213469747
841.559,313.9963716731958
841.677,325.5360458089406
841.795,328.37528704425256
841.913,342.6058702709066
842.031,360.55766561877294
842.149,373.493876551055
842.267,378.33052038376985
842.385,370.59313824245874
842.504,370.03844008383174
842.622,372.9911012325639
842.74,376.76281000034373
842.858,379.3059473395524
842.976,382.78241801209447
843.094,376.7186289443769
843.212,371.9855758073952
843.33,363.16680838469927
843.448,362.584404598367
843.566,358.0314380414719
843.684,355.01267061877604
843.802,353.15061315279036
843.92,357.65825265650165
844.038,361.71654151086216
844.156,366.00426759466006
844.274,379.10324908971324
844.392,395.8082911908268
844.51,395.2795670581743
844.628,389.0919684666472
844.746,383.1511231218734
844.864,377.456165222987
844.982,361.6399952028884
845.1,334.46278622175066
845.218,324.62323957827516
845.336,304.6780652291718
845.454,280.2939298411075
845.572,252.05698060022928
845.69,228.44600538532524
845.808,215.71987865526978
845.926,205.31323244469473
846.044,186.61481134234492
846.162,182.2254811490861
846.28,171.8872332069096
846.398,162.1827514984995
846.516,145.37523948705908
846.634,130.35387466176607
846.752,121.8831591871224
846.87,113.2453441453791
846.988,97.1363796821815
847.106,84.08864587415806
847.224,69.8100398206272
847.342,54.08931863096309
847.46,37.546636722862175
847.578,22.153650757398562
847.696,14.434643535094828
847.814,15.102978410474552
847.932,24.6891059099961
848.05,34.02651386181848
848.168,50.52323953586854
848.285,61.0033309388526
848.403,71.22542307544505
848.521,71.33190917876911
848.639,75.80578739173504
848.757,82.00866993370528
848.875,92.58731005143301
848.993,103.95729216050276
849.111,113.63030457260295
849.229,107.7500702314564
849.347,110.45858047905426
849.465,106.23462319418451
849.582,98.71283041147936
849.7,92.15294239067893
849.818,88.195651772476
849.936,86.88771180362372
850.054,83.68972854472835
850.172,82.98871498280266
850.29,99.61410834728377
850.408,111.04036751263072
850.525,123.99649680784782
850.643,134.96647891691777
850.761,154.62217531170208
850.879,157.12808815670286
850.997,160.3093256770283
851.115,161.60917791596836
851.233,171.52548037135853
851.35,169.95780014276602
851.468,175.47843160248522
851.586,183.10815397129522
851.704,208.25822266045168
851.822,225.01608355740052
851.94,258.66398774439256
852.057,293.60713002662277
852.175,337.1649909235715
852.293,380.57826307593166
852.411,413.45560449236115
852.529,447.6238549996999
852.647,485.85011416504744
852.764,515.5014815555035
852.882,543.5502515433623
853.0,563.7860345182343
853.118,591.3594798307685
853.236,608.9519727623506
853.353,604.682128031595
853.471,601.5845776731338
853.589,585.4030446306901
853.707,564.3453211120559
853.824,536.7005846064089
853.942,518.1640732089871
854.06,510.63881722282076
854.178,478.67460019769345
854.296,449.5891710513539
854.413,422.02668562795793
854.531,385.86073700109876
854.649,347.5666498461011
854.767,302.01282243136325
854.884,263.32652748415785
855.002,227.26966976638982
855.12,184.67082070663056
855.238,159.16374653864608
855.355,133.8687935827827
855.473,111.0257886788673
855.591,92.64165823382613
855.708,70.82784094734939
855.826,47.289505663675214
855.944,30.42268057263557
856.062,10.948203886894397
856.179,3.3459157568771545
856.297,-10.815523993858125
856.415,-16.77113834154637
856.532,-13.36104923551587
856.65,-19.248393816168182
856.768,-17.590171159189083
856.886,-21.68436717974025
857.003,-18.463003198831824
857.121,-14.96541747204632
857.239,-17.85121953259281
857.356,-17.857987141055673
857.474,-24.087892295877086
857.592,-29.14430347799633
857.709,-24.18096772562305
857.827,-19.399463907166222
857.945,-13.613673813393756
858.062,-7.138365005441243
858.18,-0.896465880165211
858.298,7.838714054579594
858.415,11.374172938621102
858.533,20.755239131115612
858.651,31.891968656190134
858.768,37.45540135296983
858.886,34.647266800080175
859.003,37.56579575821323
859.121,36.679086267019024
859.239,34.230090940114565
859.356,27.485708436656807
859.474,27.562312499748685
859.592,28.436632059601298
859.709,23.065577268150165
859.827,22.33560348645493
859.944,16.056850861427186
860.062,15.555618997149573
860.18,13.75831686482773
860.297,14.314643364757979
860.415,20.812173928995
860.532,20.326731038609708
860.65,25.157886583448274
860.768,32.54622369355255
860.885,45.40558540113638
861.003,54.50823715201019
861.12,67.32171141370667
861.238,72.32479606501376
861.356,70.53134391978406
861.473,65.11797835464111
861.591,59.831885516770754
861.708,60.83410436721198
861.826,66.87441845574833
861.943,69.34936457891645
862.061,69.16022487409867
862.178,53.78030482121851
862.296,44.92007869710092
862.414,42.789196266421655
862.531,40.03847412369867
862.649,34.360851597808285
862.766,41.160035840909174
862.884,50.18442755927181
863.001,47.42149330765096
863.119,38.44599318119877
863.236,38.443050475292026
863.354,41.55237086075076
863.471,41.27779279327106
863.589,37.48642171255854
863.706,47.74180387859916
863.824,59.36688301433672
863.941,70.79629115440315
864.059,81.81704128581154
864.176,86.67502085444927
864.294,84.7078921979787
864.411,86.49314449388916
864.529,85.7883534997562
864.646,80.31299973506054
864.764,77.18310051581953
864.881,81.31467315805033
864.999,88.64797740201277
865.116,94.99600026069376
865.233,112.66090623625777
865.351,139.51282519883472
865.468,156.3145277111951
865.586,165.01666312398837
865.703,174.84520546318845
865.821,181.71790364654413
865.938,178.98627282557078
866.056,177.55420910416444
866.173,182.8217124823251
866.29,179.6199517912217
866.408,178.28226036418755
866.525,172.63980703239156
866.643,175.59908530232724
866.76,173.52546313936247
866.878,172.3799795045365
866.995,177.5271365623512
867.112,183.73749708336933
867.23,185.7920134485433
867.347,187.98505795224543
867.465,183.84650072434584
867.582,180.09062747913035
867.699,175.41960271876334
867.817,182.52087233069074
867.934,192.69140601188207
868.051,205.96496999610355
868.169,216.333772075563
868.286,222.8281152805635
868.404,225.35102991413544
868.521,228.38909606285898
868.638,229.21504099946128
868.756,246.34488203995963
868.873,260.9258053315401
868.99,284.68248619887805
869.108,304.45821468526356
869.225,325.9516920893978
869.342,348.8988491472119
869.46,378.02869018771014
869.577,398.8598299295071
869.694,427.4641298444644
869.812,437.47881936981145
869.929,442.59827079992056
870.046,449.45105556336284
870.164,448.1237537467184
870.281,453.7860623196847
870.398,459.1868990311789
870.516,465.21717297211023
870.633,460.74701401260893
870.75,442.5660325422852
870.867,425.9590770459875
870.985,424.33393973150805
871.102,413.0802309884572
871.219,399.5797689986531
871.337,381.98839791793984
871.454,370.91304415324396
871.571,337.92340467426243
871.688,314.0160162775321
871.806,294.06966684184084
871.923,277.1414992243314
872.04,258.0254528189432
872.157,236.49555359970213
872.275,219.89552451033106
872.392,211.46692399238844
872.509,187.3889728250952
872.626,175.3456536924342
872.744,153.6521181095569
872.861,136.4356388037359
872.978,113.79231967107526
873.095,102.61133820075221
873.213,97.34983724990971
873.33,87.31257872330954
873.447,75.83635915774835
873.564,68.76446859651618
873.681,56.654482797188656
873.799,44.17216685054662
873.916,25.99405945810271
874.033,18.952160304691542
874.15,15.211857048653854
874.267,2.9497628830504845
874.385,-0.149289220468523
874.502,6.719227469516163
874.619,6.772239435319149
874.736,1.713254012685237
874.853,-0.35677172537753954
874.97,0.32688605379703173
875.088,4.264949121556848
875.205,5.444253570351888
875.322,5.6072747562320275
875.439,10.824319911139103
875.556,11.881732039631531
875.673,8.977003692609193
875.791,10.937718754060882
875.908,12.813825002385798
876.025,12.21151754245328
876.142,13.332383664323423
876.259,4.535414602155364
876.376,-1.9730536586531267
876.493,0.6556916720309509
876.61,2.5647285056874245
876.728,7.441674001102834
876.845,10.738039274724741
876.962,9.752832881183325
877.079,10.583259124351727
877.196,7.642507938218153
877.313,4.929454273929015
877.43,11.736865958540651
877.547,15.488362460844485
877.664,15.648311829028035
877.781,13.053044249237194
877.898,13.616344689317074
878.016,10.920547262320808
878.133,18.29017181489713
878.25,14.838237967303288
878.367,17.736602629691774
878.484,12.971577246613366
878.601,11.399097410443723
878.718,5.578625146951898
878.835,2.226488196251025
878.952,-0.8350013162059845
879.069,2.6008330736681473
879.186,-0.1358713504183755
879.303,5.862536102610851
879.42,4.579873138440014
879.537,9.079251746286989
879.654,2.325450807014902
879.771,-1.102210925817361
879.888,-7.2186983788150805
880.005,-14.460916262979968
880.122,-23.220404183230134
880.239,-33.49716213956559
880.356,-45.291190131986326
