wavelength_nm,intensity
792.446,221.3885263618
792.565,206.90064757392125
792.684,193.26644843972215
792.803,180.48592895920274
792.922,168.5590891323628
793.041,145.6093055825793
793.16,133.89588566915938
793.279,133.19805017132387
793.398,141.48636185963556
793.518,149.95822333149704
793.637,170.62835320162685
793.756,191.98852636179998
793.875,213.72618869946234
793.994,231.8872276605013
794.113,239.0093055825792
794.232,234.98333155660515
794.351,227.33484670812035
794.47,212.6880934613671
794.589,193.35562592889954
794.708,175.3616865349601
794.827,162.80151337478702
794.946,156.6326822059558
795.066,146.77380774708132
795.185,145.98852636179996
795.304,149.62142679470037
795.423,150.3980501713238
795.542,146.80151337478696
795.661,139.69242246569607
795.78,137.72532289859657
795.899,132.64740082067453
796.018,120.78506315833694
796.137,114.467314240588
796.256,123.2205609938347
796.375,137.3677471410208
796.494,139.5270545003281
796.613,129.18419735747096
796.732,122.36168653496019
796.851,113.66904584231959
796.97,102.99372116699499
797.089,94.27943545270928
797.208,101.7538943271681
797.327,108.66991164318534
797.446,114.78592895920264
797.565,122.18679476006841
797.684,132.1963185695922
797.803,143.97207614534983
797.922,152.114933288207
798.041,147.49155666483043
798.16,143.56601553928925
798.279,126.53830991158364
798.398,115.76255233582603
798.517,110.07077744405115
798.636,109.50281207608585
798.755,115.75129692457074
798.874,121.48982506309889
798.993,127.53224930552314
799.112,140.97813675141055
799.231,144.65172982500349
799.35,140.9071410804147
799.469,137.1106042838779
799.588,127.57640514967886
799.707,119.05346142673514
799.826,116.10540947868324
799.945,111.85346142673527
800.064,113.93571250898631
800.183,117.07842535169908
800.302,114.55591452918819
800.421,115.28073415400779
800.54,113.5143560876297
800.659,120.06457253784609
800.778,130.93138350465705
800.897,133.16500543827908
801.016,138.67539504866863
801.135,135.61320168647532
801.254,142.66385103712474
801.373,153.75649172976546
801.492,157.10973848301217
801.611,173.71753069080432
801.729,181.71320168647526
801.848,183.2023791756527
801.967,178.13744411071764
802.086,157.94523631850987
802.205,143.59891597218956
802.324,124.03874281201647
802.443,99.65172982500351
802.562,77.72028619922932
802.681,53.43850967973327
802.8,38.376183684861886
802.919,24.522931142736883
803.038,13.432399041408559
803.157,6.167659521162947
803.276,6.313129862797307
803.394,2.4838140596043674
803.513,-6.062365171727581
803.632,-16.041928000445036
803.751,-11.403662830563562
803.87,-14.50054311263002
803.989,-14.985564859219124
804.108,-16.88939524513478
804.227,-11.755888337511754
804.346,-15.801988938224104
804.465,-9.717341112884743
804.583,-9.757815561546744
804.702,0.39248365330586843
804.821,6.633164545126543
804.94,10.445679302155458
805.059,12.122079054500652
805.178,15.161828826977105
805.297,15.838017243663604
805.416,22.324311549547264
805.535,27.084860635815986
805.653,33.48920314335069
805.772,40.67947533437916
805.891,40.76198602730878
806.01,47.256814913320575
806.129,58.337982552754
806.248,78.75643096513075
806.367,102.22846820396765
806.485,130.25859280352137
806.604,154.72082468740825
806.723,173.14095625085614
806.842,190.14550339871974
806.961,206.74485574138853
807.08,213.72689206674147
807.198,220.01282449599051
807.317,212.5723499988327
807.436,205.00113957093888
807.555,193.8585005716164
807.674,180.46477932121172
807.793,184.61218361193247
807.912,189.68426322732847
808.03,202.14508743146905
808.149,230.60591163560954
808.268,263.6875150605293
808.387,291.6487721651025
808.506,311.13124139088796
808.624,316.77301797598085
808.743,323.62518417146316
808.862,309.30851919811414
808.981,292.02648625939696
809.1,279.69423687046316
809.219,266.346403065945
809.337,244.54315800601566
809.456,219.71999952617296
809.575,206.34446009394938
809.694,207.07454836735343
809.812,209.4782297143505
809.931,222.63775521719162
810.05,239.17563569838774
810.169,253.31697938304717
810.288,268.9544269638105
810.406,275.10442865712787
810.525,277.4310537270686
810.644,282.59577403510457
810.763,288.6124423950886
810.882,299.73473846070027
811.0,304.3167747860521
811.119,309.8451314577244
811.238,324.0237045796131
811.357,331.21266731189144
811.475,328.24145688399676
811.594,324.9793373651929
811.713,330.82111395028517
811.832,343.87154854403536
811.95,348.8189528347553
812.069,355.0373527964709
812.188,356.8765319789657
812.307,352.2715553173048
812.425,340.0752366643019
812.544,321.5377924701735
812.663,309.62978550548235
812.782,292.3901768091896
812.9,285.33065469298367
813.019,282.92221482786005
813.138,276.2497056986673
813.257,285.5520883443664
813.375,290.44321557881005
813.494,291.6607497396607
813.613,293.8427860650136
813.731,297.8620518275959
813.85,306.2553435642043
813.969,318.368981621159
814.088,332.851450846945
814.206,358.3183356571466
814.325,372.9124931946209
814.444,390.08760311304763
814.562,406.1389035076647
814.681,418.736524248602
814.8,417.2562229116172
814.918,421.88587828458935
815.037,418.31120465323266
815.156,408.8785223638673
815.274,400.4553638840258
815.393,391.9958417678207
815.512,393.7700858853818
815.631,389.356451215064
815.749,387.81814122007074
815.868,389.2772338224801
815.987,378.6869757755387
816.105,376.0845965164764
816.224,372.9194466946436
816.343,361.11187263038676
816.461,349.69910376093526
816.58,334.4776768828257
816.698,311.60949675796275
816.817,283.8140439058272
816.936,258.6610152961158
817.055,236.81880919722718
817.173,217.04153816327377
817.292,206.73439699945033
817.41,201.45409566246678
817.529,209.09846965015856
817.648,209.02422891923592
817.766,221.13094056926582
817.885,234.42899421063788
818.004,229.4768314017935
818.122,229.31687638515703
818.241,229.1032417148407
818.359,232.34068929560638
818.478,239.12661211711767
818.597,247.56110314621475
818.715,248.5932438087062
818.834,267.89847679127
818.953,280.814311783253
819.071,379.82234363868747
819.19,493.03050072476657
819.308,618.7367128104021
819.427,715.7466744546275
819.546,755.750893627918
819.664,717.6500194390203
819.783,639.2610713791466
819.901,522.7564243227295
820.02,460.90672042109065
820.138,386.45694046926803
820.257,332.7761950509986
820.376,288.3184237097389
820.494,255.04245137708386
820.613,233.44873012667995
820.731,219.3355283567954
820.85,219.104577669162
820.969,226.05717676507845
821.087,244.62622607744493
821.206,265.5312061257422
821.324,290.7149740528273
821.443,314.4493913305617
821.561,327.11714194162954
821.68,326.75718692499163
821.798,308.5703920815139
821.917,291.6615193159581
822.035,275.10589330364894
822.154,253.16238850346087
822.273,242.30373218812127
822.391,235.80005422776014
822.51,228.44269661371956
822.628,215.3719190862592
822.747,204.0110982687557
822.865,207.0658618668366
822.984,205.13101507530706
823.102,211.7052591928683
823.221,217.92192755285382
823.339,220.68491625915976
823.458,221.5543984719592
823.576,210.27669453757264
823.695,212.98254038673576
823.813,207.24423039174306
823.932,199.92237061320054
824.05,194.64812988227695
824.169,185.1002960777604
824.287,177.3784362992178
824.406,170.3777886418874
824.524,166.78926219667812
824.643,174.03277038350353
824.761,175.64424393829432
824.88,187.2340724714402
824.998,196.324333905019
825.117,204.23624036024304
825.235,212.27368794100838
825.354,219.59338660402494
825.472,226.27499002894632
825.591,220.97823847551274
825.709,228.26590250649468
825.828,236.80464878855872
825.946,237.1866851139129
826.064,237.74621061675614
826.183,229.59231620617948
826.301,227.44707980426088
826.42,216.95205985255885
826.538,205.5098537536707
826.657,202.12305891019392
826.775,196.63150216195513
826.894,194.11397138774234
827.012,191.15488217197097
827.13,177.91181027221688
827.249,173.51462581835017
827.367,160.48800413504637
827.486,161.75488894524904
827.604,159.5663625000405
827.723,166.84450272149863
827.841,172.97372519403916
827.959,182.20511216874417
828.078,193.58714849409847
828.196,214.06269131295937
828.315,226.0040349976211
828.433,242.30295443985858
828.552,250.6391033193256
828.67,252.96139938493985
828.788,242.16681233367117
828.907,230.25534216551938
829.025,206.24863390212954
829.143,187.29993429674852
829.262,160.98154517858595
829.38,132.440739013416
829.499,113.63522044672686
829.617,98.0948848763657
829.735,92.83009586837117
829.854,93.08736079188733
829.972,97.45149532132837
830.091,116.52267971343468
830.209,140.0056362964507
830.327,154.56452254616406
830.446,185.91491771603268
830.564,204.77328760090643
830.682,226.16845402257655
830.801,230.9540966347229
830.919,231.15359206072208
831.037,220.07429960793343
831.156,201.24349200362963
831.274,175.32264110928264
831.392,154.65114086428633
831.511,144.73721637686566
831.629,143.6830321491853
831.747,146.16997346263045
831.866,153.21449053365149
831.984,163.4927738384386
832.102,163.55980173197023
832.221,155.59392919260137
832.339,140.6843337095093
832.457,137.43621008788887
832.576,127.09111676929872
832.694,115.21970859916061
832.812,109.99960989715413
832.93,110.6633742315222
833.049,98.60140246192216
833.167,88.27632117230871
833.285,84.76379348399058
833.404,96.04256234567399
833.522,108.87497001398152
833.64,122.54375459024934
833.759,137.4596765360286
833.877,148.4178447368903
833.995,156.51507060888787
834.113,171.47030513889416
834.232,189.43679508015597
834.35,209.4275274456602
834.468,225.97843297133744
834.586,235.17003113770727
834.705,224.94777649022424
834.823,208.09695041416975
834.941,193.5638732558641
835.059,181.3598004265627
835.178,167.28473192626564
835.296,160.03304004934506
835.414,157.27052566160185
835.532,164.8231627890101
835.651,160.10826744888604
835.769,164.79596951135952
835.887,170.99622568638722
836.005,182.75232601725907
836.124,201.79933543903996
836.242,221.71820633268214
836.36,235.70114649039348
836.478,251.47542863944687
836.596,260.6384553772449
836.715,267.26468557824643
836.833,276.4207859091182
836.951,293.98727585037943
837.069,311.2948913327662
837.188,321.72371893636506
837.306,324.5733257607432
837.424,328.6255299877189
837.542,334.93227966924
837.66,332.18967870141057
837.779,337.66093054743396
837.897,333.53045079172574
838.015,333.47096670701313
838.133,327.740486951305
838.251,328.5658513514411
838.369,331.7868867472482
838.487,329.02004335517654
838.606,336.15709606700113
838.724,337.7573522420291
838.842,334.83466469411337
838.96,333.4738819081024
839.078,331.0542246632171
839.196,331.06833365209786
839.315,325.32140367993986
839.433,320.1891923225006
839.551,324.1513532594338
839.669,321.83386051671323
839.787,318.8903937480186
839.905,321.2516888840859
840.023,326.0017286088978
840.142,322.1941925761337
840.26,319.5632799199929
840.378,316.6250079564927
840.496,322.3741818804383
840.614,325.0696761507041
840.732,324.3062959620953
840.85,326.2926993232702
840.968,325.60464380998616
841.087,320.0854194655332
841.205,319.86316481805
841.323,325.8668841965407
841.441,337.68965119407903
841.559,344.07085975005896
841.677,356.18713324110365
841.795,366.32764915639086
841.913,375.44478844830144
842.031,386.3498065280907
842.149,397.20201075506634
842.267,409.0247777526047
842.385,415.8241681267666
842.504,414.9516970290672
842.622,419.28442073656254
842.74,419.76865959557324
842.858,410.89878590047135
842.976,412.52934510580235
843.094,399.8421553933846
843.212,397.82076654676763
843.33,398.92838202915493
843.448,399.71738279292754
843.566,404.6024874528042
843.684,416.6546916797804
843.802,422.0913114911723
843.92,429.88723866187166
844.038,429.1662827156882
844.156,433.75008867426675
844.274,441.32437082332154
844.392,445.77311184683526
844.51,455.07466672316275
844.628,461.1519791752478
844.746,458.6076466056877
844.864,447.38019715301067
844.982,427.434132981719
845.1,394.92876145111995
845.218,371.8450349421659
845.336,344.6504859223894
845.454,330.451607898284
845.572,307.7090069304558
845.69,286.5620769582987
845.808,266.1623331333278
845.926,244.46042480619246
846.044,223.30570262624306
846.162,213.08085057616375
846.28,188.01097688106267
846.398,175.74370058855888
846.516,154.12144594107662
846.634,133.26196185636488
846.752,120.47433924351473
846.87,113.88325342720155
846.988,113.15363947236035
847.106,105.00694380140862
847.224,92.65922612878768
847.342,87.24874230998228
847.46,72.82947118714304
847.578,57.00003715240643
847.696,47.923953154607275
847.814,44.148101128187974
847.932,45.31374107707151
848.05,41.45001756816846
848.168,57.59820789543034
848.285,70.56149893318693
848.403,83.2079036027599
848.521,87.49152466309593
848.639,94.95147427294464
848.757,103.4148870862567
848.875,117.40817002943899
848.993,130.96335773452606
849.111,147.20858872965644
849.229,155.77070284166996
849.347,166.73281695368354
849.465,167.63259340335958
849.582,164.6379975586633
849.7,166.15682162738688
849.818,169.57521279567766
849.936,172.41091998128442
850.054,171.28731980758374
850.172,181.1394772096407
850.29,193.36133158139472
850.408,201.026475996439
850.525,210.04573296559587
850.643,220.3221327918955
850.761,219.75524257490522
850.879,221.3918155613781
850.997,222.17817209763456
851.115,223.99656326592577
851.233,216.6547812740439
851.35,209.81516378432661
851.468,212.3556328746959
851.586,223.92900239796555
851.704,239.39934161820491
851.822,272.16491893368243
851.94,318.81534473400836
852.057,368.5722640408279
852.175,415.86338248184666
852.293,468.33891650728106
852.411,516.8066583249231
852.529,563.0813265494915
852.647,595.8503670684324
852.764,630.6704898384556
852.882,664.1139892318554
853.0,688.8215578893246
853.118,698.628693646361
853.236,712.8514138189817
853.353,719.2663417838102
853.471,709.0682827356516
853.589,681.9983622156317
853.707,650.9267100938804
853.824,616.8507181609575
853.942,590.4375677052988
854.06,566.3003555631226
854.178,552.883621210115
854.296,542.1482941988559
854.413,508.9151537501244
854.531,464.642208521929
854.649,420.7337875185989
854.767,370.4435703938137
854.884,324.5416591391464
855.002,283.3706152840375
855.12,241.00194956792942
855.238,205.3952325111132
855.355,169.00236826815
855.473,143.03288064856338
855.591,122.85992982551363
855.708,99.36490108038608
855.826,73.04214842167562
855.944,50.500073047555745
856.062,28.896723299400026
856.179,6.997134666454789
856.297,-5.948204793966552
856.415,-15.965539226712941
856.532,-17.119654031403226
856.65,-22.25222176764317
856.768,-29.609346697467156
856.886,-36.14239346045555
857.003,-36.00531951229124
857.121,-43.04557812542504
857.239,-41.92943472544612
857.356,-35.04985737601457
857.474,-30.687255180563163
857.592,-30.623913630897242
857.709,-27.676133954435798
857.827,-20.956664563438956
857.945,-9.198615314198909
858.062,0.9368707772551232
858.18,16.611323390311895
858.298,27.126931380648806
858.415,26.68239850913355
858.533,33.19172598966312
858.651,42.563379799387626
858.768,57.62573661744737
858.886,67.51131413254248
859.003,76.51738127255359
859.121,69.58875896271442
859.239,57.366745151287034
859.356,40.62047571940243
859.474,23.647971705405446
859.592,15.1445610717617
859.709,13.329293609673801
859.827,7.938972890918567
859.944,5.358386351778793
860.062,-3.1201109915459693
860.18,-6.251196499747071
860.297,-10.462524951194364
860.415,-10.187330938392698
860.532,-2.5115918126191152
860.65,4.248411118037437
860.768,7.427233569765326
860.885,18.09608208895722
861.003,19.77603655095479
861.12,21.953123100565566
861.238,25.324521244796358
861.356,34.13215560934509
861.473,40.334531134836375
861.591,44.97150895187381
861.708,45.23094990549838
861.826,54.84306549379089
861.943,49.585606319425736
862.061,46.070571180437746
862.178,37.94381255130544
862.296,32.11056494678901
862.414,18.209879015197295
862.531,11.305998756545936
862.649,5.347952779384047
862.766,6.355226817038979
862.884,6.239894797720801
863.001,8.962767192705584
863.119,13.004962414193304
863.236,17.61210745577903
863.354,18.00516251022019
863.471,16.810928469466823
863.589,13.82205649397392
863.706,17.088386909918214
863.824,19.994163207574697
863.941,29.576232208137768
864.059,37.20528143576843
864.176,44.37285210460671
864.294,47.169261196694315
864.411,38.967829031392334
864.529,31.38544448513808
864.646,35.07665301247687
864.764,43.60162777358205
864.881,56.171624179708886
864.999,70.56499720921245
865.116,89.76789404823977
865.233,101.52144023791654
865.351,112.24814660075344
865.468,117.68567547441296
865.586,135.0452822701504
865.703,153.86030032129906
865.821,160.9878724850018
865.938,170.08947062273052
866.056,170.7668263362168
866.173,160.6857404912616
866.29,152.7899360315876
866.408,145.76252984031186
866.525,147.58707170098404
866.643,142.83152698156948
866.76,147.08550607167865
866.878,158.1619959842987
866.995,158.40991446834747
867.112,156.9314260259893
867.23,158.2295609602544
867.347,164.2367868036103
867.465,165.09163169458515
867.582,168.10838134746453
867.699,172.58833446354734
867.817,178.64058195192445
867.934,183.09889004636204
868.051,198.57537995898133
868.169,213.93325515298577
868.286,230.18377103963087
868.404,237.80225229424147
868.521,251.95753008564867
868.638,251.47644424069247
868.756,260.83172203209995
868.873,285.0519348884424
868.99,316.4011520737893
869.108,348.185867094634
869.225,384.2060799509767
869.342,414.7899291709557
869.46,454.72702514418154
869.577,478.5013505546367
869.694,501.8938577832737
869.812,525.1426420681878
869.929,533.4286557903314
870.046,545.2635872613928
870.164,558.4976529315886
870.281,559.9377792078449
870.398,569.4696803758761
870.516,562.9115382538641
870.633,555.4278550063111
870.75,543.9545613691475
870.867,522.2613543120707
870.985,505.01230309914956
871.102,489.90870643168284
871.219,460.5419063010126
871.337,446.53960833484433
871.454,427.50181253317817
871.571,399.10384357133916
871.688,366.1950520986775
871.806,334.28366322341867
871.923,308.52811850400394
872.04,284.1214915335071
872.157,259.5945182426637
872.275,250.603475687751
872.392,235.5769352973403
872.509,210.64736460389938
872.626,190.5394389321033
872.744,176.37783360662763
872.861,160.83787330279702
872.978,139.30224200329548
873.095,127.75881849600165
873.213,116.59721317052603
873.33,98.18712299656548
873.447,79.15798520355716
873.564,59.87257035427167
873.681,48.176765894596585
873.799,36.739835893796055
873.916,22.761788956657337
874.033,15.323819128677455
874.15,15.238936888795863
874.267,5.408057813476621
874.385,-2.428364895742016
874.502,-10.228452369288325
874.619,-12.188506048266127
874.736,-10.386519527294244
874.853,-12.874841625001451
874.97,-10.148369012867903
875.088,6.2761390916732696
875.205,7.177291404308926
875.322,12.71182946633241
875.439,5.048246814502279
875.556,-0.933389241584794
875.673,-1.582066198610402
875.791,-5.116918122745698
875.908,-3.9016499515104552
876.025,3.2981899579664855
876.142,5.166924065865427
876.259,10.601515718427187
876.376,1.6770951192586312
876.493,-5.045646667230989
876.61,-3.467831658931447
876.728,-13.095041272314653
876.845,-16.3665092083776
876.962,-18.96796445004296
877.079,-9.15937517452095
877.196,0.5150365967989927
877.313,6.9847209468536535
877.43,7.576482943483315
877.547,12.869146030632379
877.664,4.787925885461918
877.781,-3.9290940687367124
877.898,-5.270946272803561
878.016,0.09629933265310342
878.133,-1.123860373363451
878.25,6.242021003089679
878.367,2.02358146424626
878.484,-3.654933362671836
878.601,-12.720020548821346
878.718,-14.462535001471256
878.835,-4.6024465881008005
878.952,-6.596657012469548
879.069,-7.7313365070305595
879.186,-2.1570934411592124
879.303,-9.11879142376179
879.42,-20.430841458297586
879.537,-27.959150758809812
879.654,-26.074697794277835
879.771,-20.690764666592514
879.888,-25.503574524168
880.005,-26.4145433860455
880.122,-26.353679169145302
880.239,-25.320981873467428
880.356,-23.316451499011876
