wavelength_nm,intensity
792.446,176.40967413448314
792.565,164.768462013271
792.684,152.66664383145283
792.803,140.1042195890286
792.922,127.08118928599812
793.041,98.79287759768658
793.16,81.8353018401109
793.279,83.74006374487283
793.398,93.18595119076025
793.518,102.38421958902853
793.637,116.30023690504584
793.756,133.01885162366045
793.875,148.72188192669074
793.994,156.24569145050026
794.113,160.46560487041373
794.232,159.85781266262154
794.351,149.6119252167341
794.47,137.99374339855228
794.589,126.47166547647441
794.708,119.90283430764326
794.827,113.62231482712382
794.946,105.98941439422336
795.066,99.93053993534886
795.185,98.38248798729683
795.304,102.9409295457384
795.423,106.27339707820596
795.542,106.10196850677744
795.661,105.41365681846577
795.78,104.86214166695066
795.899,107.07339707820606
796.018,101.46300746781642
796.137,99.84655725136616
796.256,91.64395984876879
796.375,87.95218495699395
796.494,80.2526178574268
796.613,74.09157889638786
796.732,71.5487217535307
796.851,67.44655725136622
796.97,64.8985053033143
797.089,62.51408971889868
797.208,60.18768279249181
797.327,76.29937110418005
797.446,87.80326720807614
797.565,100.33746634227526
797.684,109.77382997863884
797.803,108.47859188340078
797.922,109.18335378816269
798.041,99.64395984876882
798.16,88.9088949137039
798.279,83.64655725136623
798.398,80.09417629898536
798.517,80.87512867993772
798.636,86.47686028166933
798.755,89.33919794400705
798.874,99.93053993534897
798.993,104.18162218643121
799.112,107.7123581171671
799.231,113.43010703491598
799.35,113.40326720807616
799.469,111.15391655872551
799.588,103.81192521673415
799.707,93.97209837690737
799.826,82.10370010850909
799.945,71.03703344184245
800.064,71.32015032495939
800.183,80.89071309552222
800.302,85.15218495699406
800.421,92.89244469725374
800.54,92.39807240288138
800.659,95.74179534660425
800.778,94.09244469725354
800.897,103.73053993534876
801.016,112.11841872322762
801.135,128.7097607145696
801.254,135.86473906954797
801.373,141.13227153708044
801.492,148.00586461067357
801.611,148.31495551976442
801.729,156.31582132063025
801.848,165.05088625569516
801.967,163.08811569292456
802.086,162.75564816045699
802.205,144.59201179682066
802.324,124.27079967560854
802.443,98.9053571190712
802.562,67.19104654106229
802.681,56.00377615926985
802.8,40.927781402344706
802.919,31.721402037436853
803.038,24.196812362247456
803.157,19.305736546903127
803.276,10.177840473589583
803.394,-2.736754488409141
803.513,-7.266910204698444
803.632,-11.604833049742593
803.751,-20.501492318663267
803.87,-25.817164471085626
803.989,-30.66674798188299
804.108,-25.102433919354095
804.227,-30.364962509416138
804.346,-29.172610585903104
804.465,-23.51566006077032
804.583,-18.343135949378
804.702,-11.281169491872841
804.821,-10.173350987146689
804.94,-2.4473412149989136
805.059,-1.8472863720026338
805.178,-2.551206200094211
805.297,2.1721290959603676
805.416,12.874800962369008
805.535,23.612777752200714
805.653,32.564374773287554
805.772,39.354871815566746
805.891,47.71648397287787
806.01,42.79135025918779
806.129,50.37210787457063
806.248,62.25699230944697
806.367,83.94948940894102
806.485,110.7132514941926
806.604,137.69259799502845
806.723,166.03817826209797
806.842,181.96471091011978
806.961,189.18388425078223
807.08,194.31907490746204
807.198,184.614438724315
807.317,174.07776790913348
807.436,170.4484564013114
807.555,155.29533536967978
807.674,153.64784204367604
807.793,150.32329244061606
807.912,159.01865625746956
808.03,177.74778630808936
808.149,197.14531462710744
808.268,223.2571286604112
808.387,254.18799031276262
808.506,267.3941766404386
808.624,276.9371595049113
808.743,281.2939951832367
808.862,283.75992177065314
808.981,276.97216870438984
809.1,259.2017316554427
809.219,239.5585673337684
809.337,221.6651865618776
809.456,194.18479280297367
809.575,178.18318692285774
809.694,176.05863731979804
809.812,177.94880633145695
809.931,183.1272870314274
810.05,190.37849500412494
810.169,210.20892375604325
810.288,230.28177675038563
810.406,241.98579857589687
810.525,253.66990698149465
810.644,255.0804223134993
810.763,260.07708483165106
810.882,263.63998111603655
811.0,264.88772588527047
811.119,277.95365247268626
811.238,288.71568295620614
811.357,291.0517394137521
811.475,291.4986183821207
811.594,288.1827267877186
811.713,296.429605756087
811.832,299.8660951140656
811.95,307.61946758892725
812.069,311.4481647391133
812.188,311.98941600185333
812.307,304.8596715935977
812.425,298.7411825965975
812.544,285.3620875389912
812.663,266.98299248138494
812.782,246.15714417702526
812.9,239.70099284236238
813.019,228.6509021137599
813.138,224.74366852801444
813.257,237.50483321066707
813.375,256.8218420491638
813.494,258.14664309545276
813.613,254.23594630624387
813.731,258.0810936728791
813.85,268.99896831224146
813.969,275.05623689099764
814.088,278.61913317538136
814.206,300.96211603985125
814.325,318.7708997701221
814.444,325.84894756965696
814.562,342.5763460185424
814.681,354.4015799652633
814.8,362.1722684574387
814.918,357.7819179885753
815.037,344.3578012859456
815.156,345.6003512499825
815.274,346.5606501317683
815.393,347.6066632992681
815.512,342.45354226763374
815.631,342.55323508881315
815.749,341.0321486892131
815.868,335.42534800389876
815.987,327.2999325999698
816.105,328.5078505293741
816.224,327.88027062328047
816.343,315.7600500245462
816.461,297.0112579972406
816.58,277.7689594764286
816.698,252.20198563094135
816.817,235.69648364692605
816.936,218.333838805768
817.055,205.0854796788957
817.173,198.05443656933937
817.292,184.38356661995618
817.41,175.02092177879803
817.529,168.11541979478264
817.648,169.72247192332134
817.766,180.53991366224963
817.885,187.23787488169745
818.004,190.7947105600196
818.122,201.9108535976492
818.241,204.4365204448026
818.359,218.4764730062418
818.478,227.18742123867673
818.597,239.3292012548735
818.715,230.6843912282948
818.834,232.24671192965974
818.953,252.22856491635542
819.071,341.4158297278425
819.19,481.7769740332397
819.308,632.5024172790752
819.427,746.362840660099
819.546,791.4524545496042
819.664,748.3767709296089
819.783,651.7249177591541
819.901,524.3967650542337
820.02,428.30690642365823
820.138,357.2581424940888
820.257,306.10133740005733
820.376,268.6119436069875
820.494,235.1878269043573
820.613,222.39747643549342
820.731,205.1231432826468
820.85,197.69989238088243
820.969,195.82988823236474
821.087,210.29927802324087
821.206,233.69161153706057
821.324,262.7263692933043
821.443,300.55506644348725
821.561,319.8002138101204
821.68,310.604668536061
821.798,286.92514057801907
821.917,250.81617539054005
822.035,220.68729678314753
822.154,193.57833159566835
822.273,191.36633610515864
822.391,198.09460035490866
822.51,202.11204209383618
822.628,196.84686925080004
822.747,190.63463142714852
822.865,177.50520790796702
822.984,168.07750902920876
823.102,164.10234781365807
823.221,172.08308534635353
823.339,165.4705641187296
823.458,169.45093131693363
823.576,166.92635144313
823.695,171.04552412968647
823.813,172.14311554221518
823.932,170.1448063668716
824.05,167.0437457995846
824.169,170.4428065253972
824.287,156.68795389203035
824.406,152.84825277381486
824.524,157.8838763309239
824.643,158.71949988803283
824.761,161.36984205986005
824.88,155.75611496761803
824.998,165.85753939052728
825.117,172.97368242815497
825.235,180.37034494630223
825.354,182.15921525665718
825.472,187.73250115142767
825.591,181.6148779552891
825.709,189.30764436954001
825.828,187.62811641149653
825.946,184.240363345228
826.064,177.01624664259595
826.183,176.91507366290773
826.301,171.54550241482124
826.42,163.8192212100248
826.538,162.4262733385616
826.657,171.6454466792195
826.775,166.63171958697694
826.894,163.7764340531758
827.012,161.4181182163444
827.13,158.35677207648263
827.249,154.82356446475916
827.367,142.74749971017837
827.486,132.00390248806502
827.604,124.36246976811617
827.723,122.00501973214998
827.841,130.22938787800177
827.959,142.75332312342067
828.078,160.9023665939476
828.196,182.3656957787602
828.315,204.08703362158147
828.433,215.93564419167546
828.552,221.32797770549251
828.67,225.5177138167121
828.788,213.31524213572385
828.907,193.053895995861
829.025,165.26614292959107
829.143,142.05155003648136
829.262,124.19155125899823
829.38,97.74223837749925
829.499,77.078418562563
829.617,70.58700276732755
829.735,58.763318445100225
829.854,51.70880821693542
829.972,59.47359375218089
830.091,77.80279611479874
830.209,107.10190372873303
830.327,133.67768314129
830.446,159.25835089970985
830.564,195.5978422793213
830.682,213.7830490849156
830.801,213.3950957173499
830.919,211.02445836710018
831.037,191.37416733719687
831.156,169.37149535491264
831.274,144.12899653280152
831.392,113.99036362347101
831.511,110.33833092813083
831.629,108.60039264461484
831.747,102.94317516175323
831.866,111.6369392238746
831.984,122.89367516890147
832.102,129.73983020107718
832.221,130.9158754905334
832.339,126.29362219060576
832.457,126.52678014608921
832.576,128.73829307992747
832.694,117.23020712324363
832.812,110.22147857986604
832.93,110.42162787708112
833.049,95.64835232397236
833.167,86.19411482867807
833.285,84.98292066888052
833.404,85.08979801128653
833.522,98.30530007612927
833.64,105.44459604625999
833.759,118.73485607743395
833.877,128.35190240824318
833.995,132.4004143112446
834.113,151.68355824887794
834.232,173.64635586616495
834.35,192.44465131894975
834.468,211.35896408775184
834.586,222.24990023317744
834.705,220.019624257391
834.823,207.7980062902627
834.941,178.943487890234
835.059,167.6777140789499
835.178,148.2006848564104
835.296,133.31066862088372
835.414,128.1132930779978
835.532,135.92803874723296
835.651,136.56442943811322
835.769,144.2172703454437
835.887,146.57833636099946
836.005,168.72295216010525
836.124,179.7705982622415
836.242,198.49356903970244
836.36,218.21134501196877
836.478,236.69708635220053
836.596,247.02784933745392
836.715,252.84086340495838
836.833,258.27638829497374
836.951,274.0244672975433
837.069,291.59765452522106
837.188,309.49551707757433
837.306,325.98991642646445
837.424,333.7986014896402
837.542,340.1986285441578
837.66,339.94237854239867
837.779,329.43418048869154
837.897,328.8705711795733
838.015,317.32081468430795
838.133,309.061101479086
838.251,307.34164801412373
838.369,302.2983850253519
838.487,301.4784986599567
838.606,304.8404304763797
838.724,302.9469510373914
838.842,315.14784389277526
838.96,320.4006848001071
839.078,329.46911012302337
839.196,329.5964099048142
839.315,319.96873133162677
839.433,311.3427843601711
839.551,300.7826382545163
839.669,294.8276869540562
839.787,291.1203547012152
839.905,294.9957064310581
840.023,292.0701923600353
840.142,289.62866097299536
840.26,288.17587417469997
840.378,288.26854192185925
840.496,292.64692395473287
840.614,297.44521940751974
840.732,298.07468369147546
840.85,306.0591263304093
840.968,303.2721403979144
841.087,308.3059336861987
841.205,310.61245424721
841.323,315.8860743753211
841.441,320.8679196116572
841.559,327.6437042419327
841.677,335.5744672271867
841.795,344.2307713379819
841.913,347.757205318907
842.031,358.2888341050268
842.149,365.57544124612514
842.267,380.5720050971802
842.385,395.0326382123045
842.504,398.30625834041587
842.622,399.71407760272643
842.74,391.0214639646043
842.858,382.7106685083005
842.976,370.23222416037754
843.094,354.46433558693104
843.212,394.49032762924367
843.33,443.86200253609064
843.448,471.2168384046878
843.566,478.58513826533806
843.684,467.14525709639634
843.802,443.72403472470256
843.92,406.92666595545154
844.038,379.0759656725072
844.156,401.8019543179995
844.274,423.3127247642535
844.392,438.82097692699676
844.51,433.84611220662316
844.628,427.5812041962063
844.746,416.16824423773744
844.864,407.33537085935507
844.982,391.15531133378647
845.1,372.3371565701227
845.218,359.04714033459754
845.336,339.20214574409397
845.454,310.40823340467284
845.572,284.1363989873298
845.69,264.56240006782235
845.808,247.37108513099898
845.926,231.48539789980327
846.044,218.94776261665947
846.162,213.15211867550704
846.28,194.1988989767788
846.398,178.45953209190333
846.516,163.62925611611888
846.634,144.01110135245585
846.752,124.64229723814361
846.87,104.8345320848704
846.988,97.72546823029856
847.106,82.60908661816015
847.224,73.62456763805035
847.342,73.052848032735
847.46,71.24977990793546
847.578,57.09209225118411
847.696,51.45475065049659
847.814,46.52160214533669
847.932,54.16026700150784
848.05,51.5818789708934
848.168,63.90978587522504
848.285,77.30885058447149
848.403,77.20635036398511
848.521,74.87935441819542
848.639,76.45971777976489
848.757,87.76215906341214
848.875,98.29663497909411
848.993,111.9402018038671
849.111,133.35259979747133
849.229,146.15720558328337
849.347,145.5886511959352
849.465,154.4443392328294
849.582,154.78054675024305
849.7,158.75744690834935
849.818,159.1369444690531
849.936,162.57531648863147
850.054,165.29247638699786
850.172,161.83647611220408
850.29,163.3042853612199
850.408,161.42144525958628
850.525,167.59055320990075
850.643,176.1873667879208
850.761,182.98677776853816
850.879,188.9818597448266
850.997,195.66438760856101
851.115,198.07418819956837
851.233,198.42598013256713
851.35,193.25655994435377
851.468,205.33822200722275
851.586,216.6960745462821
851.704,227.29029072170493
851.822,250.23602204864284
851.94,284.42331181713917
852.057,321.8209911960251
852.175,362.99529395153434
852.293,410.7791205165675
852.411,463.56381288246644
852.529,503.4195009193611
852.647,539.3808166618835
852.764,572.5871540494277
852.882,608.744140787621
853.0,632.6786167033035
853.118,650.4555168614102
853.236,661.8428066299065
853.353,656.0612652295715
853.471,641.6061307556436
853.589,623.192554723274
853.707,597.9677232796491
853.824,582.3108572039896
853.942,559.5864586607977
854.06,548.0101120656577
854.178,525.7220771588295
854.296,502.81759203555123
854.413,482.7096437088098
854.531,449.70559148596453
854.649,413.055651817232
854.767,373.57887232165956
854.884,330.268326592321
855.002,284.99674190194344
855.12,231.61433470074326
855.238,196.38950325711897
855.355,158.59843804726086
855.473,128.11992694995698
855.591,100.28683571522427
855.708,78.99633614498242
855.826,59.12947961611852
855.944,37.954959467018156
856.062,27.632835229700085
856.179,17.762597265373927
856.297,4.700410752581732
856.415,-1.1790736885187698
856.532,-9.774216812022797
856.65,-23.11538028456056
856.768,-33.79489256537481
856.886,-42.89985160374044
857.003,-35.752154799310446
857.121,-43.319114089913384
857.239,-43.255167763735614
857.356,-38.39748427258146
857.474,-37.650818028674074
857.592,-33.28438249381581
857.709,-24.949744857411062
857.827,-15.236065255799653
857.945,0.07668331575743892
858.062,0.7802335598454331
858.18,17.011681024107123
858.298,24.240960099056824
858.415,29.083182599322743
858.533,34.56758473344334
858.651,37.026808875400306
858.768,40.590736761122464
858.886,47.25561768920558
859.003,42.67055258660579
859.121,46.70752942653912
859.239,40.639118468167595
859.356,35.18176229988872
859.474,23.959409918788268
859.592,18.51683836760785
859.709,11.63274520085729
859.827,16.531848233468253
859.944,4.451626483009287
860.062,0.6911499842451152
860.18,-3.3941755920944487
860.297,-3.745048574258588
860.415,-1.813055199966989
860.532,-0.9429671291741215
860.65,-3.3873343835035494
860.768,5.535022274755967
860.885,9.77335907854765
861.003,20.04496636889332
861.12,26.810539493718643
861.238,43.04997950123383
861.356,53.98459279574483
861.473,61.58258966951897
861.591,59.435502315940106
861.708,50.19441856993271
861.826,48.185696055241365
861.943,38.20808125950227
862.061,25.459048329825823
862.178,26.041154845427926
862.296,23.135230347544738
862.414,24.666604476003556
862.531,22.08791151265232
862.649,14.26471168507264
862.766,13.98996800038353
862.884,10.847244853059532
863.001,4.120515539012047
863.119,6.627736383671078
863.236,7.2622718978223935
863.354,11.079708644743377
863.471,10.749326992606312
863.589,16.84949015358893
863.706,19.754125938938785
863.824,34.81367650517808
863.941,44.86695985471292
864.059,57.433664861930815
864.176,58.941062758370244
864.294,59.17664280723246
864.411,46.11223221533723
864.529,33.009387921278524
864.646,22.791129519987194
864.764,26.958454915608158
864.881,30.282981014140574
864.999,43.61993073642522
865.116,57.38865249866372
865.233,78.10422194402022
865.351,98.84930341448316
865.468,114.0974151879763
865.586,128.43210704804946
865.703,143.7165824579062
865.821,154.62530029200536
865.938,159.62232981441628
866.056,155.51979223726016
866.173,145.5817568246062
866.29,142.33636210459287
866.408,131.58360807722
866.525,126.19881941781246
866.643,129.69887924325326
866.76,134.05608192583685
866.878,138.2877434828793
866.995,142.67351759403425
867.112,139.61600166189922
867.23,147.80523897651736
867.347,155.40832910498816
867.465,168.09453611657582
867.582,173.33831888573917
867.699,177.81500208780287
867.817,181.51592771410904
867.934,181.93633385989574
868.051,184.12037636931896
868.169,194.12346649778982
868.286,201.96898086868507
868.404,212.6802961053811
868.521,221.46087541134102
868.638,235.70898718483335
868.756,258.77874397997056
868.873,282.96884709545407
868.99,307.6186904706778
869.108,332.37589315326085
869.225,356.9625330652814
869.342,382.38467081279987
869.46,410.8622198157296
869.577,439.25145713034783
869.694,472.1125559168273
869.812,492.94854647819875
869.929,500.4001214551545
870.046,513.8430384234522
870.164,517.0400679458627
870.281,518.2414264726023
870.398,515.5354256919825
870.516,512.5246630066008
870.633,511.15112975844863
870.75,497.83473936743945
870.867,486.45687711495816
870.985,485.8807464642084
871.102,466.61890152774447
871.219,449.39255442677836
871.337,424.66404282364783
871.454,406.32514161012773
871.571,381.6122144225819
871.688,343.513140048889
871.806,320.95692281805316
871.923,305.29507788158946
872.04,278.8903758022685
872.157,259.60428844156206
872.275,248.9268590895136
872.392,241.69098817902346
872.509,220.02048523390135
872.626,200.3742247130217
872.744,186.90718497136282
872.861,176.31373830329693
872.978,156.48825700319637
873.095,140.43680167712188
873.213,131.9654329311339
873.33,114.45077414185589
873.447,89.01144002790252
873.564,71.70197604381924
873.681,54.101627603861616
873.799,39.6264618985349
873.916,19.788847797500626
874.033,14.595327430086307
874.15,15.729362730445281
874.267,8.576733971588212
874.385,4.2279410423769335
874.502,7.367147375328807
874.619,6.61285634708203
874.736,-4.033691432712395
874.853,-12.092844746295144
874.97,-13.900170087676761
875.088,-11.303606238318892
875.205,-16.005813919079127
875.322,-10.373843267270537
875.439,1.06906950460196
875.556,6.255961872602768
875.673,6.416953197535884
875.791,11.351442149364503
875.908,12.895314219561943
876.025,16.63920176912669
876.142,14.87133202068642
876.259,20.23320139832513
876.376,17.488019151279786
876.493,11.104864333812808
876.61,7.707321641788025
876.728,7.091484317919563
876.845,4.639787806267257
876.962,-2.513001996536654
877.079,-1.0361039288717002
877.196,0.5453230917924388
877.313,-1.0489350574901568
877.43,-2.562423873948795
877.547,-1.1250240300733623
877.664,1.15479784312602
877.781,3.1853037431662647
877.898,4.771446014804521
878.016,7.172856430124562
878.133,14.213403460557927
878.25,11.239248117003848
878.367,4.688898667524493
878.484,-2.3077711402446344
878.601,-11.801328079972599
878.718,-18.323853667116477
878.835,-17.823661460263615
878.952,-19.09751545267179
879.069,-5.46783651983691
879.186,-2.704181387808302
879.303,4.280652760166534
879.42,12.581545032944376
879.537,12.138074937371051
879.654,2.60013351046631
879.771,-5.549375817079383
879.888,-17.60025559237424
880.005,-21.053644520742516
880.122,-21.854373747211405
880.239,-20.002443271780933
880.356,-15.497853094451088
