wavelength_nm,intensity
792.446,145.2413232514451
792.565,129.52920203932388
792.684,114.43482974495159
792.803,99.9582063683282
792.922,86.09933190945367
793.041,68.38937519949697
793.16,47.032893282328274
793.279,38.98650464904401
793.398,36.416501419135066
793.518,43.63564587728271
793.637,57.75252112270975
793.756,83.28018907783849
793.875,112.21757576967592
793.994,131.07890855925058
794.113,132.264278912176
794.232,121.77086138631353
794.351,97.43415381716092
794.47,75.39701334757537
794.589,53.4559767740938
794.708,45.3937280794002
794.827,40.923687176914655
794.946,37.127239348022314
795.066,39.81996900830747
795.185,39.58282853872231
795.304,40.68941101285991
795.423,40.38560387660786
795.542,39.86361492217403
795.661,40.70093332704759
795.78,35.442067367093955
795.899,30.966918008508593
796.018,26.892076272641233
796.137,20.471323219577606
796.256,21.21208016458999
796.375,25.612205214933585
796.494,28.101665448799697
796.613,28.683876623749136
796.732,26.716724002944428
796.851,22.127686926267735
796.97,12.227791384776939
797.089,7.169966830557888
797.208,14.165359404324887
797.327,32.53701158910005
797.446,44.895619785971135
797.565,67.44195978506195
797.684,86.21015613358475
797.803,92.92718897075869
797.922,84.7350708479745
798.041,72.33169731393501
798.16,61.48330213487384
798.279,44.65115289929111
798.398,20.92208314221488
798.517,12.736902647093235
798.636,4.773917045192006
798.755,2.0515876579704466
798.874,8.883323550396973
798.993,13.664301897460245
799.112,21.42418194483119
799.231,19.66031319091637
799.35,20.184899368176563
799.469,22.060300088045686
799.588,17.431973849315895
799.707,16.95580242394418
799.826,23.010101569040547
799.945,19.234713886825276
800.064,20.000900881190177
800.183,19.55712128788422
800.302,23.24870535242374
800.421,32.77158432153523
800.54,36.68327987109184
800.659,38.28029636744452
800.778,42.858190646230085
800.897,46.395937082535056
801.016,46.319830704987325
801.135,46.73723082094631
801.254,49.203115785390196
801.373,56.31575399658731
801.492,57.49505887445098
801.611,54.5505542285048
801.729,64.76968594619473
801.848,66.58795186301884
801.967,66.69020046382569
802.086,60.81443242267906
802.205,58.494860180352944
802.324,44.398612981822836
802.443,26.098103705061007
802.562,8.384401990611666
802.681,4.305793985253076
802.8,-8.916523898924446
802.919,-10.259224175618805
803.038,-19.39305283101195
803.157,-26.949467065679247
803.276,-38.41715361044164
803.394,-43.47222817295764
803.513,-44.68239074190009
803.632,-40.41766458078344
803.751,-36.75441928159685
803.87,-27.459687500280246
803.989,-16.415360385651972
804.108,-19.44355689222885
804.227,-16.03725265900394
804.346,-12.825959085241589
804.465,-3.9731309810404434
804.583,2.7110389629434604
804.702,4.991434784843096
804.821,15.094931265096236
804.94,14.187446344712985
805.059,0.11732724889504453
805.178,-3.023187938227796
805.297,-17.311486945855002
805.416,-14.113218387250807
805.535,-21.337390912208598
805.653,-24.41963479205117
805.772,-15.565593274361014
805.891,-17.981255183337677
806.01,-17.278516843150975
806.129,-7.249828430673255
806.248,4.415481851946609
806.367,19.53495605390266
806.485,23.513377801284385
806.604,33.76171441470108
806.723,51.7130649638119
806.842,62.81537280676616
806.961,64.53274135377158
807.08,68.60662511365932
807.198,76.7093877944551
807.317,69.82164594670259
807.436,60.7079300729762
807.555,48.20016640711235
807.674,44.27689059112913
807.793,43.6478173229435
807.912,39.99106979359972
808.03,53.83283336692348
808.149,73.12917376134013
808.268,94.16214094597863
808.387,110.9882539891561
808.506,120.03763525751205
808.624,120.18398622283765
808.743,121.55977441760065
808.862,111.74248901929013
808.981,104.9174114131876
809.1,90.48713900189045
809.219,82.315741049468
809.337,69.55893190719708
809.456,56.23669757652972
809.575,48.08758926673741
809.694,39.02532835835217
809.812,28.284903954691764
809.931,26.389573828258605
810.05,28.48876056001292
810.169,42.142467123788244
810.288,52.36716433217893
810.406,62.341331756026825
810.525,71.97983062115932
810.644,67.93783549946187
810.763,68.44990925954431
810.882,72.06241592005964
811.0,74.67492258057503
811.119,85.4320179856791
811.238,95.49300949467941
811.357,101.32456377424245
811.475,100.06434316203054
811.594,101.99892774462388
811.713,97.20797120167597
811.832,87.8144172561305
811.95,89.49445638417805
812.069,93.0723310100611
812.188,101.43548702122574
812.307,113.15275558650293
812.425,125.47781635957257
812.544,133.11023644000178
812.663,126.4811846589592
812.782,123.9049467307305
812.9,121.29667417046724
813.019,116.62866135046387
813.138,120.63077840059033
813.257,125.32207293989418
813.375,129.13198219781265
813.494,126.22673994057945
813.613,129.24097820282662
813.731,129.23270564256288
813.85,123.86166251952866
813.969,128.0178921237673
814.088,134.38018233406655
814.206,133.3537279556213
814.325,143.74199219189464
814.444,147.84627374418534
814.562,157.59990594582672
814.681,150.21933901326906
814.8,147.52708376902314
814.918,149.12140861135728
815.037,149.6750408129988
815.156,142.07802366399108
815.274,147.73035716433395
815.393,154.4883183703045
815.512,156.93199386198938
815.631,149.03108060908545
815.749,150.40116302717718
815.868,155.3366134106367
815.987,152.56730188933417
816.105,147.81011158015295
816.224,144.65725027530073
816.343,153.4039560700155
816.461,147.88139779546623
816.58,139.6038611659385
816.698,129.37048038056653
816.817,124.70506496315986
816.936,115.33142443752796
817.055,108.27466702877922
817.173,95.28197888409977
817.292,92.07543792556754
817.41,89.8541783523167
817.529,77.64884631242313
817.648,63.70822059228269
817.766,63.85230088162169
817.885,61.79784889903759
818.004,64.07700311061436
818.122,68.39831769096064
818.241,74.4346413110894
818.359,88.79714311244322
818.478,89.67946855105045
818.597,92.3594896937949
818.715,97.23699761684934
818.834,107.38716737081464
818.953,135.70042291521037
819.071,192.63358081905682
819.19,283.34306469199834
819.308,375.7890880957445
819.427,443.5413186589184
819.546,460.60998284784876
819.664,423.8327494513884
819.783,351.9345027180399
819.901,259.12739704131263
820.02,180.1158136564922
820.138,138.57825071546648
820.257,108.19232423467754
820.376,86.31076548163887
820.494,65.34686651666455
820.613,49.12106969064243
820.731,40.89644480289827
820.85,36.01434929536974
820.969,44.833822191999786
821.087,61.885696652849546
821.206,79.22671252821108
821.324,91.38501530537087
821.443,105.53579962779322
821.561,111.02336017575234
821.68,106.5282367410275
821.798,101.51363278682231
821.917,90.34863351593648
822.035,73.8039555095624
822.154,63.95528067943619
822.273,57.62481470939586
822.391,58.946655020749766
822.51,56.68074716428445
822.628,58.24035496154456
822.747,67.09127286363726
822.865,67.53191253131834
822.984,70.15273944561213
823.102,77.63835876685052
823.221,80.9759193093623
823.339,82.32784081420058
823.458,79.10713862446715
823.576,86.23362258191975
823.695,98.05880783807353
823.813,99.0112658214998
823.932,97.74813938934145
824.05,91.44085711302714
824.169,85.95954886268686
824.287,75.90854364264978
824.406,64.66446482953936
824.524,68.29138168742463
824.643,74.89925092626245
824.761,73.37205523003531
824.88,73.34182923077795
824.998,72.36528288520032
825.117,72.85800060888675
825.235,70.81565339750841
825.354,70.04689925972315
825.472,73.72922737302001
825.591,77.66696674172816
825.709,81.53544204117202
825.828,87.5164714531698
825.946,87.65767402534064
826.064,81.80493720357195
826.183,82.00847743808018
826.301,83.48474494531544
826.42,76.45451894605722
826.538,74.20178212428816
826.657,85.06333101680464
826.775,83.10861101228937
826.894,76.12895050334197
827.012,65.27545888323753
827.13,62.977526741720155
827.249,53.945270648325305
827.367,41.1491868690252
827.486,34.61214650727551
827.604,37.98334697641179
827.723,34.41307789064629
827.841,37.85390714736741
827.959,45.41168781365211
828.078,52.09283438041635
828.196,63.43320217365376
828.315,68.49589562955228
828.433,76.8354614170263
828.552,83.889803628052
828.67,87.05168213798842
828.788,74.08855747724837
828.907,55.57166360769554
829.025,28.88167369669386
829.143,12.130839621508198
829.262,-16.68539027093738
829.38,-27.634233253406542
829.499,-31.39549122711304
829.617,-27.983098777745077
829.735,-23.565091572355364
829.854,-16.95446187112717
829.972,-4.532570661068445
830.091,13.394452740695971
830.209,25.30557763814086
830.327,43.65494485288198
830.446,61.44812047129727
830.564,90.05322605599414
830.682,121.13970465499946
830.801,142.84943260262904
830.919,164.8284246195227
831.037,176.14594477494433
831.156,169.68078094768205
831.274,148.6788205836232
831.392,113.21625415895826
831.511,91.5190556996612
831.629,71.96298278148956
831.747,54.86578432219227
831.866,55.20321789752701
831.984,51.89589553152152
832.102,55.006577847910364
832.221,45.16232082188853
832.339,28.822962856950255
832.457,29.530365924968784
832.576,23.1520599123586
832.694,18.45989441754901
832.812,21.366686182221137
832.93,15.85862699846177
833.049,19.527344882779843
833.167,10.271688488849183
833.285,5.40783864539117
833.404,5.011580331613736
833.522,5.611121303077603
833.64,16.408000781148687
833.759,23.087160607933022
833.877,24.64948857856737
833.995,32.964248752447396
834.113,38.12278188836518
834.232,47.35338037192853
834.35,48.578893079759965
834.468,52.00514854759883
834.586,62.373629980070916
834.705,65.49198494410324
834.823,66.32816383807999
834.941,61.98895776575509
835.059,55.37075422703309
835.178,47.101368492991355
835.296,43.67005133302901
835.414,41.323402849202125
835.532,47.372731783582935
835.651,54.76981309401761
835.769,65.62290527014332
835.887,71.68679362343173
836.005,78.71004223446509
836.124,86.43673292934731
836.242,101.38593444674015
836.36,110.07106670006374
836.478,114.87481367200198
836.596,116.05345241883202
836.715,126.12300025657103
836.833,132.4098641116258
836.951,140.84997471992736
837.069,150.72818056632403
837.188,157.52933013566445
837.306,165.81792559245076
837.424,169.81388035659643
837.542,171.75442386533095
837.66,173.36423144332954
837.779,180.37403902132812
837.897,181.50592452140472
838.015,182.160753744425
838.133,179.47359162545405
838.251,180.77603989609344
838.369,187.4014318896766
838.487,181.57574163217743
838.606,177.24355786818467
838.724,176.9434087362264
838.842,179.05278341379176
838.96,172.23488536408425
839.078,171.16071025809967
839.196,169.75926242484246
839.315,176.1491565829274
839.433,172.13385593581762
839.551,175.20080637095896
839.669,175.38637152471503
839.787,182.9667418732763
839.905,172.26053213525748
840.023,168.40713625005256
840.142,164.90612131722855
840.26,158.977400756699
840.378,148.7378576853469
840.496,147.5320808477611
840.614,144.21461569848677
840.732,147.4330812851432
840.85,144.07665509690787
840.968,139.78083496927857
841.087,144.70752566416004
841.205,145.23681376163904
841.323,143.79727069028672
841.441,149.64603930724604
841.559,151.9337689631662
841.677,158.49249429008205
841.795,165.54039710617522
841.913,169.40734754131586
842.031,182.7037352058938
842.149,192.49536096570986
842.267,199.2030040415434
842.385,208.45090685763674
842.504,214.20357157849202
842.622,218.31121465432568
842.74,224.93227764357923
842.858,224.78537526486718
842.976,234.2012434489255
843.094,230.43962245549457
843.212,231.60787159193373
843.33,227.0202765725286
843.448,226.96861228905408
843.566,221.7662986549302
843.684,213.5830326398541
843.802,214.291541516553
843.92,219.30134909455063
844.038,221.70336446475633
844.156,238.36425429383655
844.274,248.07189736967018
844.392,263.3050815710451
844.51,265.04995408410844
844.628,259.8441772465227
844.746,256.042729413266
844.864,241.51054564927333
844.982,230.16450907142783
845.1,215.72496600007577
845.218,204.3503579936587
845.336,187.10735171884343
845.454,166.49291687259978
845.572,143.92610107397536
845.69,118.01729393335968
845.808,101.3768850611423
845.926,91.5511948036436
846.044,79.79909761973799
846.162,80.1024116912437
846.28,73.1301792161398
846.398,66.82466841565719
846.516,62.64664713278904
846.634,42.751187580700005
846.752,32.151768309013434
846.87,16.178885058480233
846.988,7.311209604677171
847.106,-0.27216193718563986
847.224,-5.927558054236354
847.342,-13.329875814604947
847.46,-15.033512018908391
847.578,-29.22275833685128
847.696,-29.056915341130164
847.814,-27.54964346722913
847.932,-28.393918248217247
848.05,-28.979231018198575
848.168,-21.861110210245172
848.285,-15.25771584799303
848.403,-5.123566798778016
848.521,-1.0166985640492543
848.639,8.1067093856616
848.757,24.88858896436854
848.875,27.302374084782883
848.993,37.90030248735387
849.111,46.98043412974606
849.229,52.59571635290468
849.347,57.38727783116413
849.465,57.694810010177164
849.582,56.801893298167286
849.7,71.03639143167727
849.818,80.71782981196077
849.936,93.07125571654737
850.054,98.58250120048012
850.172,105.0911492818154
850.29,115.2396242029775
850.408,118.5629908990314
850.525,112.92791603664378
850.643,113.43223511365018
850.761,115.28200873611112
850.879,119.08070010748983
850.997,121.61618801566517
851.115,127.23652440868906
851.233,131.82742357227582
851.35,133.95858247612244
851.468,128.62567211589987
851.586,132.00098686390234
851.704,148.29751373311677
851.822,171.6780232863137
851.94,192.2784462594239
852.057,220.37930213296698
852.175,252.42820995456213
852.293,294.2009272999669
852.411,325.5320862038134
852.529,349.30566935008414
852.647,381.53552955263206
852.764,408.21300880279875
852.882,428.5147304772079
853.0,445.76796730313197
853.118,457.1614638693158
853.236,466.4034452839844
853.353,466.51122756445375
853.471,452.36965919557235
853.589,449.020298618899
853.707,438.3003752716627
853.824,422.78218352615806
853.942,404.53585325251504
854.06,385.18476107411027
854.178,361.72804119007776
854.296,337.9163429510667
854.413,310.44750185491273
854.531,293.32151790161583
854.649,260.6422871950721
854.767,228.8548313803031
854.884,201.05438855254727
855.002,172.68078555163152
855.12,138.15220419573748
855.238,112.27557089179174
855.355,90.79201118091947
855.473,81.2123475739433
855.591,57.278312433637815
855.708,40.698762531785434
855.826,25.76412930729032
855.944,13.972017084661719
856.062,-2.785169719785236
856.179,-10.294920688233997
856.297,-12.734962862725164
856.415,-9.347625055363395
856.532,-16.51667426150387
856.65,-24.377287597471927
856.768,-26.537134017100964
856.886,-23.848519660180436
857.003,-29.54778927314813
857.121,-29.873408903306554
857.239,-23.53740136166103
857.356,-21.687705377610015
857.474,-29.155439849455412
857.592,-32.90202482713973
857.709,-30.375240766787854
857.827,-19.071316604869537
857.945,-17.164420522898418
858.062,-8.596413491916053
858.18,4.988779676766094
858.298,7.915158626111522
858.415,6.1770519985539805
858.533,10.786648318382735
858.651,13.913765184640287
858.768,19.949175391822976
858.886,14.41933790211855
859.003,17.600873847063685
859.121,18.651333357650522
859.239,21.912883063380967
859.356,17.504150990337944
859.474,12.209587069634527
859.592,10.476863437756286
859.709,7.456167159177834
859.827,-1.2443533131093525
859.944,-3.4469841657355715
860.062,-11.530452314379007
860.18,-8.713840262500497
860.297,-9.372507903977933
860.415,-9.408391247127327
860.532,-9.676067289404603
860.65,-9.640719433404723
860.768,-3.5607013365974938
860.885,3.393485663470813
861.003,3.1341717218816414
861.12,9.872325745895179
861.238,16.735809391198448
861.356,17.043834112321434
861.473,13.787826864220477
861.591,10.50796922687975
861.708,11.078516458178962
861.826,9.669942635823206
861.943,0.5137117096089185
862.061,-6.4233454300341695
862.178,-10.354612278704803
862.296,-7.487450363059976
862.414,-6.660558942581302
862.531,-2.389127046825711
862.649,-0.2602448259058523
862.766,8.40034588986724
862.884,4.883544931530999
863.001,3.0700400621694524
863.119,3.9496534839804394
863.236,8.247869194885924
863.354,8.854165705574305
863.471,6.672791257134383
863.589,8.185157622752229
863.706,11.113520548933064
863.824,8.187247906019742
863.941,14.610221565806416
864.059,17.126417441460276
864.176,25.271074689575563
864.294,36.58671239832151
864.411,29.42125993565606
864.529,28.397757484352617
864.646,15.155665176460639
864.764,16.292878794261817
864.881,20.213281254053815
864.999,21.610526905812314
865.116,31.544153119580955
865.233,47.789405914992045
865.351,51.104052569980375
865.468,61.255230217895985
865.586,66.52045060452988
865.703,80.26955781292583
865.821,87.15214214798625
865.938,87.18364423196445
866.056,82.18051428131068
866.173,76.30725446052719
866.29,67.55260935835848
866.408,71.00142745965299
866.525,73.67795118865314
866.643,77.29127145444986
866.76,81.41281682847176
866.878,79.73349640162789
866.995,74.52257424318245
867.112,67.35494212802737
867.23,59.27042689598929
867.347,63.34608482412441
867.465,66.4252059557227
867.582,72.9632015461955
867.699,76.34188977736099
867.817,78.74308883103734
867.934,86.02480736523326
868.051,91.50825750116078
868.169,92.67828772366832
868.286,109.0128201106778
868.404,120.62614037647495
868.521,136.0238762266876
868.638,141.0588415141296
868.756,143.15268126044606
868.873,148.88115304139473
868.99,159.76200577472423
869.108,164.07575894095422
869.225,186.56353808121014
869.342,201.97166354181235
869.46,228.29753792016334
869.577,248.02860710370913
869.694,263.2488537764325
869.812,269.9565463366019
869.929,279.77246400499627
870.046,282.4143556993647
870.164,281.25538159286737
870.281,279.0522516422142
870.398,282.05345069589
870.516,285.4269441218603
870.633,286.1207838681769
870.75,271.9029353028054
870.867,263.54829020063744
870.985,260.8724329772573
871.102,245.52817748547886
871.219,240.09734190712024
871.337,231.00676606902135
871.454,224.8451945599267
871.571,215.30440227161125
871.688,192.51079613048182
871.806,177.19770946987177
871.923,171.89674402138283
872.04,155.5827915599068
872.157,145.6740339036255
872.275,137.59298187504987
872.392,133.22621556075993
872.509,123.71745790447864
872.626,107.60870024819732
872.744,100.57180406377762
872.861,93.57819792264807
872.978,81.900609097536
873.095,76.44466529406911
873.213,73.70473880661976
873.33,67.35697932161588
873.447,55.2337780543179
873.564,41.804406872906505
873.681,28.989129496135973
873.799,17.134338629877895
873.916,13.06928479163227
874.033,13.275843685113868
874.15,12.763927484957984
874.267,6.86841522802996
874.385,4.671376913399083
874.502,3.995260255471009
874.619,-4.004735611312889
874.736,-2.990906496481381
874.853,0.09183243298255661
874.97,0.12015457092950754
875.088,6.223299110495434
875.205,5.09672876697398
875.322,3.844378820425709
875.439,1.7060483506381394
875.556,-3.4689112878736825
875.673,-1.0271806552581624
875.791,-3.945017589319233
875.908,-0.7051946082050882
876.025,8.060521227711888
876.142,12.07388074531654
876.259,15.22922532885622
876.376,10.743123337368376
876.493,6.504348982827576
876.61,6.752710051365247
876.728,2.661371682366559
876.845,3.362041092320598
876.962,4.853023866606924
877.079,4.051796954983274
877.196,6.680030913916813
877.313,2.667590558615785
877.43,-0.03398997829616768
877.547,0.5910193783921476
877.664,-1.1098660619022789
877.781,-2.9640131613285203
877.898,-1.8866571647897925
878.016,-11.6934222100043
878.133,-9.202901283928451
878.25,-3.791239394461838
878.367,-8.74637095543789
878.484,-3.8322958750687945
878.601,-3.2729883205059966
878.718,0.05689596414115616
878.835,0.5845554879644954
878.952,-4.888581348470154
879.069,2.4441367023116536
879.186,4.040533905537007
879.303,-0.6582203828304207
879.42,2.3058300046068294
879.537,1.7850454867879617
879.654,5.8846972970241875
879.771,2.9183454249189293
879.888,0.18499830162600206
880.005,-5.473599228681991
880.122,-13.20103456714735
880.239,-22.997307713770063
880.356,-34.862418668550134
