wavelength_nm,intensity
792.446,187.18191412218292
792.565,175.66918684945574
792.684,164.1915245117935
792.803,152.74892710919613
792.922,141.34139464166344
793.041,120.47126477153358
793.16,110.7154206156894
793.279,108.23923013949889
793.398,106.6262431265119
793.518,119.17516087542958
793.637,139.06087516114385
793.756,159.20632970659844
793.875,175.52407862434742
793.994,187.12061542088423
794.113,193.55611325638205
794.232,195.9275418278106
794.351,176.112823213092
794.47,156.24875394902276
794.589,139.26953316980195
794.708,120.9136890139578
794.827,105.65308295335176
794.946,97.95351585378464
795.066,94.40632970659846
795.185,101.70589680616553
795.304,99.58468468495346
795.423,98.07645957672844
795.542,97.67645957672848
795.661,95.74918684945575
795.78,91.99680589707484
795.899,97.20286650313545
796.018,93.60373230400124
796.137,92.14832104858996
796.256,88.17516087542978
796.375,84.58987949014839
796.494,80.95351585378472
796.613,79.61152451179333
796.732,78.11888381915263
796.851,79.28338598365477
796.97,74.89550719577603
797.089,69.41758511785397
797.208,67.42797472824363
797.327,80.38901368928256
797.446,83.90070200097082
797.565,91.76477126504008
797.684,91.48338598365483
797.803,96.83230373257254
797.922,103.67126477153361
798.041,98.66087516114402
798.16,88.93360243387133
798.279,87.98035568062454
798.398,80.18035568062453
798.517,75.50762840789731
798.636,64.92061542088436
798.755,70.0037323040012
798.874,71.09031239058129
798.993,72.6141219143908
799.112,69.87213057239944
799.231,80.47905697932582
799.35,87.48771498798388
799.469,93.18208728235624
799.588,89.91628641655538
799.707,93.7933426936116
799.826,86.01412191439084
799.945,80.92061542088436
800.064,79.83316953343845
800.183,87.24788814815699
800.302,87.41152451179332
800.421,90.62537732564613
800.54,95.87213057239939
800.659,102.85741195768072
800.778,103.05308295335175
800.897,106.29204399231281
801.016,107.0885807888496
801.135,105.48338598365476
801.254,103.31109161136033
801.373,99.82451152478023
801.492,96.86433836460716
801.611,96.33706563733443
801.729,104.12581022607907
801.848,118.63836433863318
801.967,125.22451152478038
802.086,124.35091845118734
802.205,119.0608751611441
802.324,100.37169767196667
802.443,72.58061426517011
802.562,51.774639853957915
802.681,41.18080116977736
802.8,31.05170977842476
802.919,25.881485243123024
803.038,18.135629218689356
803.157,12.512610219633835
803.276,6.242404411372062
803.394,-5.0851614446715345
803.513,-8.762254417667233
803.632,-12.434367529574335
803.751,-17.127674932359604
803.87,-19.55135470891721
803.989,-19.701596930610187
804.108,-15.096314532034269
804.227,-11.584885355155015
804.346,-10.48102452031765
804.465,-0.17420137123009427
804.583,0.8909450088173689
804.702,2.8636868688564303
804.821,0.8100437609600124
804.94,-1.6216982002316738
805.059,-2.3283164731314128
805.178,-3.3331046052024487
805.297,-0.11671910130952012
805.416,10.787950160076665
805.535,12.546494041107502
805.653,10.00049577025726
805.772,7.5033316687525575
805.891,-1.5266583354909429
806.01,-1.0145496130551304
806.129,9.966819091473397
806.248,27.1030796214732
806.367,50.26316325154909
806.485,79.56553659316069
806.604,102.09775677931788
806.723,118.7211648068108
806.842,126.58031735407005
806.961,134.4290802909395
807.08,138.55143630140185
807.198,141.51448495255684
807.317,135.89831282449097
807.436,139.0128766271609
807.555,135.57592527831574
807.674,132.14676613726272
807.793,136.1660918446948
807.912,138.30836127507058
808.03,145.8116696664855
808.149,158.41800836093083
808.268,171.89447692550607
808.387,192.70947362860954
808.506,206.26126686850938
808.624,216.83210772745667
808.743,220.06095724441263
808.862,207.0092872808491
808.981,194.44506320473153
809.1,173.88689973467456
809.219,158.1720263079078
809.337,148.29611392010216
809.456,133.9621928742879
809.575,126.44818524838702
809.694,118.17487026317885
809.812,110.49722627364164
809.931,113.67845674297885
810.05,116.51509846772719
810.169,125.66342850416386
810.288,138.2489879778299
810.406,146.28649550344397
810.525,144.11967402472894
810.644,139.62731142047272
810.763,140.90464578591337
810.882,149.9352269046007
811.0,157.43853529601523
811.119,165.30548005106613
811.238,179.19147242516465
811.357,192.32768124947958
811.475,189.98250479240912
811.594,190.1697958678061
811.713,187.95362373973973
811.832,194.05693213115381
811.95,190.21911498144232
812.069,192.75445800489098
812.188,200.84218198072068
812.307,210.50046872711306
812.425,212.09555201030213
812.544,210.1183409211969
812.663,200.36104325200523
812.782,202.5795031585713
812.9,199.33822280539715
813.019,202.93590349118395
813.138,213.34310798649437
813.257,224.1710917025839
813.375,236.88392390352192
813.494,242.38982969753346
813.613,247.72950172531102
813.731,248.51939020330502
813.85,249.51793668995708
813.969,244.49570395582992
814.088,246.90031104854242
814.206,251.43132506766187
814.325,257.8125555369978
814.444,262.2517946643424
814.562,265.1057524064055
814.681,260.8999698887283
814.8,267.099382176246
814.918,255.00269056766004
815.037,252.10166995474492
815.156,254.3478354890159
815.274,246.53945556874152
815.393,241.72068603807753
815.512,240.834384039881
815.631,239.62167511527772
815.749,252.31026489197308
815.868,258.5226641924781
815.987,260.7965353544548
816.105,266.7500601960851
816.224,272.6005547346848
816.343,270.42594104817624
816.461,267.0634485737886
816.58,258.7823413807863
816.698,255.8250437115936
816.817,244.67553825019326
816.936,222.0697557325159
817.055,206.81029356115883
817.173,194.22529026426045
817.292,179.17535190242688
817.41,162.10463431981373
817.529,153.6590249623086
817.648,150.91558010696798
817.766,152.65611793560987
817.885,160.86765143524735
818.004,169.80212865782863
818.122,176.70110804491205
818.241,185.56891860082675
818.359,182.93456465457677
818.478,176.46038386850012
818.597,183.21847240852514
818.715,179.9090140162461
818.834,190.56564357904176
818.953,220.50862335594093
819.071,289.644204601212
819.19,404.39831729496996
819.308,515.6907367468582
819.427,599.7309093262352
819.546,639.0293755647867
819.664,598.0873149830766
819.783,508.9306301396058
819.901,400.22227260217164
820.02,311.61546091121716
820.138,255.61113794786166
820.257,213.860648078868
820.376,185.60509302287085
820.494,168.60190790778984
820.613,150.0627920567781
820.731,139.0812519633421
820.85,132.3274174976117
820.969,138.09652675482488
821.087,149.27342821983046
821.206,164.34297037747666
821.324,184.9614302840406
821.443,210.01019322090778
821.561,220.82345832227736
821.68,224.90598749291118
821.798,211.23873311376164
821.917,197.80524496837828
822.035,183.91461396585203
822.154,169.51489205423462
822.273,161.52902295646987
822.391,154.68947420502548
822.51,148.8845574882132
822.628,144.46665375841422
822.747,144.24268942255478
822.865,147.50270777067817
822.984,159.1514707075462
823.102,164.02014706432743
823.221,171.80743813972322
823.339,171.78520540559492
823.458,171.6980376065315
823.576,172.65329404989225
823.695,174.4786803633829
823.813,173.84432641713332
823.932,175.71127117218236
824.05,170.40159255060792
824.169,166.47459791171732
824.287,156.1060448312681
824.406,150.0846778980051
824.524,152.5048694063006
824.643,157.8038487933841
824.761,162.18248186012144
824.88,170.24942661517045
824.998,173.82892548277357
825.117,170.41102175297397
825.235,169.6225552526115
825.354,168.73798485614518
825.472,169.3140205202848
825.591,175.664947959316
825.709,175.56912215159403
825.828,175.36766863824425
825.946,166.3125354712148
826.064,163.16909061587359
826.183,164.82391415880085
826.301,163.82072904371947
826.42,165.9214400325342
826.538,167.8775622767601
826.657,166.5176672049687
826.775,164.77162494702986
826.894,157.96151342502162
827.012,160.12456207617348
827.13,158.20103064074522
827.249,148.785724313542
827.367,137.7375175534383
827.486,122.43389953792334
827.604,113.82551961764649
827.723,111.34527822550805
827.841,106.70399787233073
827.959,117.46012011655591
828.078,124.33399127852996
828.196,135.89097932362077
828.315,142.97177689252098
828.433,158.39283420168087
828.552,171.8450603420095
828.67,181.4358146208663
828.788,178.13998881314302
828.907,164.24067462214046
829.025,140.01150708781194
829.143,115.54592209137948
829.262,79.89612843042026
829.38,62.72427023324197
829.499,44.58470204773103
829.617,33.0864962609293
829.735,33.54379715291985
829.854,26.630783326109153
829.972,39.552654574783176
830.091,51.99467403870865
830.209,69.64287350721867
830.327,99.23946054152222
830.446,116.7966711635332
830.564,140.4208405862664
830.682,165.51042382855852
830.801,183.22742746705347
830.919,195.55308911420627
831.037,196.51857760118608
831.156,184.99921760331745
831.274,165.09803942363067
831.392,132.60205604913875
831.511,120.99092115949539
831.629,107.36420185426775
831.747,104.60847822003592
831.866,102.28046021350963
831.984,103.30309155763274
832.102,103.1819999580329
832.221,90.88055419826934
832.339,80.47250471844187
832.457,84.7077474729818
832.576,86.11015942848691
832.694,98.04166782779178
832.812,101.32166036576004
832.93,104.70588669478153
833.049,104.67028187151392
833.167,88.53823908415602
833.285,76.56939124920191
833.404,67.76151588737758
833.522,71.67850833142343
833.64,79.68414795986087
833.759,80.50486875976259
833.877,88.75416098823574
833.995,100.86579087904656
834.113,110.60945540189195
834.232,123.17909395071129
834.35,133.60933856013668
834.468,147.14953987951867
834.586,155.93129964045906
834.705,159.55461784295773
834.823,157.44113950865992
834.941,147.3207347674356
835.059,131.11288413876525
835.178,117.91542312048443
835.296,110.73960712384851
835.414,107.74734091076236
835.532,120.85204439464601
835.651,125.60263532441698
835.769,134.51513101609265
835.887,136.14624142638286
836.005,144.77821763753866
836.124,153.8768605153611
836.242,168.6854601031402
836.36,176.49319389005356
836.478,189.9156462916858
836.596,191.41602077124008
836.715,198.61509654949577
836.833,204.756163669743
836.951,213.646148538908
837.069,222.44435851629825
837.188,237.0425684936884
837.306,245.3922936225937
837.424,253.95846896794916
837.542,253.80429799295808
837.66,257.7020750699149
837.779,260.0448737918933
837.897,258.14611407231297
838.015,256.5954063007845
838.133,260.66288034743775
838.251,268.6922591559956
838.369,270.1900362329517
838.487,268.812488634583
838.606,276.57260337387663
838.724,278.7275233079753
838.842,279.15949951913
838.96,272.55424629305514
839.078,268.3212874392745
839.196,271.36105585822094
839.315,264.35147362781663
839.433,266.61288706840793
839.551,266.6310104657091
839.669,260.10454511842147
839.787,260.5131447061987
839.905,251.40745857969023
840.023,252.90610145751054
840.142,251.65582658641307
840.26,247.78304089280448
840.378,251.05224654118715
840.496,243.9534868216045
840.614,234.86511671241163
840.732,229.72826175473386
840.85,219.96196956761904
840.968,223.43290681773362
841.087,221.33501289901687
841.205,229.01633975952066
841.323,233.49247181482968
841.441,233.13656923810402
841.559,242.19019047090222
841.677,245.07498053486916
841.795,252.53812557719112
841.913,260.64629226453485
842.031,279.30251089993055
842.149,294.3050498816468
842.267,303.6668962226704
842.385,309.11272524767696
842.504,310.14037245450174
842.622,311.5654222587292
842.74,310.9930694655541
842.858,307.7194179710803
842.976,318.0726063034465
843.094,322.4664872765053
843.212,330.65344184263756
843.33,331.7018682702416
843.448,321.9113336588847
843.566,317.9363834631123
843.684,315.4982298041365
843.802,309.3059635910481
843.92,306.9517926160553
844.038,315.38463462807545
844.156,322.07548529810424
844.274,326.60183380363094
844.392,331.439870620846
844.51,341.7298554900093
844.628,349.65880139813373
844.746,346.84142695993785
844.864,343.1279486256383
844.982,337.1729118497804
845.1,316.1607322167797
845.218,288.09833613356244
845.336,259.90866732307245
845.454,236.79432318790714
845.572,210.26699203975477
845.69,186.17948773142933
845.808,169.38289251401312
845.926,156.9828340931339
846.044,146.3429488324279
846.162,134.1021977708562
846.28,117.31166315950097
846.398,113.80337963039676
846.516,101.78427359046997
846.634,89.33399871937429
846.752,78.73134289589755
846.87,68.95928434969935
846.988,64.71834277016386
847.106,48.79304076682397
847.224,34.73662846178858
847.342,36.58473328250456
847.46,29.026381311366677
847.578,22.003824692653048
847.696,18.798258696770922
847.814,17.29844930976669
847.932,21.832262759665028
848.05,11.145312889333969
848.168,18.033378059653316
848.285,33.048166157206246
848.403,35.201657429381164
848.521,39.64441029631826
848.639,45.43308941153883
848.757,58.64209425414734
848.875,68.61984619710857
848.993,78.41408196904257
849.111,98.94169194580412
849.229,107.2267147517822
849.347,104.70332394164103
849.465,116.07343962500637
849.582,121.76303582785224
849.7,129.8422424203084
849.818,137.38984728116282
849.936,152.61624002080515
850.054,164.03397475178943
850.172,160.35993459099885
850.29,159.56295070726446
850.408,163.96163781920117
850.525,165.86941584022878
850.643,167.46550554956804
850.761,179.9620281593402
850.879,187.47846418902583
850.997,197.18364480745595
851.115,198.9399076769683
851.233,196.551581801892
851.35,195.44550700906672
851.468,195.18012485693404
851.586,198.49136608142464
851.704,213.5342090375168
851.822,234.1883074048643
851.94,267.38872611853196
852.057,305.47053011358486
852.175,343.0579618142656
852.293,385.01682208637493
852.411,421.26918885199103
852.529,455.4557547518063
852.647,487.9678617771626
852.764,522.3526960752463
852.882,552.8699979057974
853.0,576.0366503856992
853.118,592.4959435582416
853.236,601.3448471203947
853.353,600.24483293363
853.471,596.3127841148307
853.589,581.9911249064211
853.707,559.6175176460634
853.824,538.5833043250998
853.942,513.5387013937467
854.06,486.2984274667227
854.178,458.2252531067983
854.296,433.9512129460083
854.413,412.7118048198503
854.531,382.71395513525067
854.649,343.9464084809541
854.767,312.3390349868307
854.884,279.2615316225775
855.002,239.4532923275882
855.12,200.71864610619198
855.238,168.42469252548838
855.355,145.34199435604017
855.473,116.85669878399456
855.591,85.48571913327024
855.708,61.44903036300019
855.826,38.56514412289839
855.944,21.596502608378394
856.062,7.619380765996125
856.179,-6.353783211718178
856.297,-10.04682004727
856.415,-12.137668071672799
856.532,-16.288395246737338
856.65,-17.859648632851425
856.768,-23.44003079963968
856.886,-27.17248016754827
857.003,-16.98714515330591
857.121,-21.91657925695224
857.239,-23.486320363296194
857.356,-25.965100276545773
857.474,-30.72001712812033
857.592,-30.160158443328452
857.709,-28.85339532557655
857.827,-22.92289278997312
857.945,0.22448356862568825
858.062,11.159575511875225
858.18,25.101577066904124
858.298,31.53672990343392
858.415,38.26796659660836
858.533,47.121570981086364
858.651,47.78816237855129
858.768,52.702372823635244
858.886,67.00273045486628
859.003,67.93486838974204
859.121,62.22128843099041
859.239,52.26229335050439
859.356,40.51607346942815
859.474,30.82857678802776
859.592,17.41705876924077
859.709,19.611207879801487
859.827,28.086570325167834
859.944,19.521025496357375
860.062,10.071739659050662
860.18,6.026064810198337
860.297,3.4144886158171324
860.415,0.5373206777465038
860.532,0.693575499583098
860.65,5.542840792692794
860.768,9.372731644659632
860.885,10.455684271358944
861.003,14.372475201828852
861.12,21.278395245347248
861.238,19.82617217468431
861.356,16.28286979475895
861.473,25.030965614291794
861.591,32.9927353543916
861.708,32.65225255676475
861.826,36.953730732945374
861.943,33.91109186894733
862.061,24.126743115619227
862.178,13.787039840464384
862.296,8.454959473265134
862.414,13.417299693485855
862.531,17.36894433727214
862.649,13.842745304707176
862.766,18.68116809730426
862.884,14.675485712458775
863.001,7.016984555605774
863.119,7.439836146459378
863.236,12.615277692225076
863.354,16.756470021511497
863.471,20.533852605213966
863.589,24.673586763619817
863.706,26.938099975203905
863.824,25.601129907371508
863.941,30.79981520491259
864.059,37.51376725193675
864.176,50.8093346467053
864.294,58.00347469085332
864.411,61.701510838897505
864.529,61.5657807531754
864.646,60.262085299487815
864.764,63.15146343887375
864.881,65.8529627903809
864.999,64.8652846527105
865.116,66.08972772716142
865.233,74.93927902672058
865.351,86.47973941718897
865.468,94.57344656090422
865.586,117.31563855310425
865.703,139.77038465785833
865.821,144.71171084919234
865.938,146.08074266823184
866.056,131.99436323186018
866.173,122.52183660934132
866.29,116.95493769245019
866.408,111.09972708724752
866.525,115.2228714603999
866.643,120.41787730541373
866.76,121.40422514176946
866.878,122.77672016427255
866.995,117.24878228634275
867.112,114.68015176772028
867.23,110.00589354346997
867.347,110.04159202917643
867.465,106.6850827226751
867.582,107.80995869755905
867.699,113.71578705339536
867.817,111.44152882914514
867.934,117.24519268281682
868.051,123.21249290012457
868.169,123.2862866239257
868.286,136.17912796677433
868.404,141.15335459100817
868.521,154.54143402909483
868.638,163.2524571901252
868.756,174.18166216933741
868.873,190.22688446456687
868.99,202.93877342646286
869.108,217.62209095978756
869.225,244.3893911770948
869.342,266.4025788402895
869.46,296.74303923075684
869.577,320.0826338203586
869.694,346.6577262454583
869.812,359.6510004887399
869.929,370.19925308699993
870.046,376.0271593649136
870.164,375.07497906274045
870.281,369.5435779813465
870.398,365.41823750601327
870.516,351.3110788488617
870.633,343.59785958564976
870.75,335.80758404538153
870.867,337.7350574228622
870.985,333.02356976138174
871.102,320.1969305847497
871.219,311.89756413539027
871.337,295.49256998040335
871.454,279.4096537474943
871.571,264.3405903284382
871.688,247.22650526436047
871.806,230.84488773275035
871.923,213.15417929204915
872.04,196.64528903316608
872.157,180.0957061335901
872.275,168.01019249808334
872.392,160.43636717426472
872.509,148.39760678551093
872.626,138.3146905526013
872.744,127.25255354047077
872.861,117.72807886600252
872.978,100.71009769802787
873.095,83.492982330919
873.213,83.06201414995743
873.33,72.3029074408573
873.447,61.40700419496072
873.564,47.59768103564428
873.681,41.648963936933875
873.799,31.805008742985343
873.916,21.755858743842083
874.033,20.921427359417372
874.15,28.322493810490585
874.267,25.3338003017927
874.385,12.39346030278178
874.502,5.957764301678314
874.619,2.7325936626840868
874.736,0.25952495624195393
874.853,-1.1484755702359473
874.97,0.6258599495034964
875.088,11.962718222920454
875.205,19.777932071408905
875.322,18.328406082413835
875.439,22.722777761577078
875.556,12.78128103905062
875.673,8.749456144082407
875.791,-2.4069602868757256
875.908,-6.1139885300445105
876.025,-0.14681836562640083
876.142,5.8460012705329465
876.259,6.01170932118666
876.376,2.5136744874459938
876.493,-2.268772355033024
876.61,-0.7608068371656953
876.728,-4.671856430476937
876.845,-4.194567828001019
876.962,-1.6384472727296382
877.079,1.7695065548709998
877.196,0.6169360579547828
877.313,2.681549631998993
877.43,11.85725836029835
877.547,6.353068781206405
877.664,2.2768699312566634
877.781,-3.524479017928341
877.898,-4.3262705270382495
878.016,-2.7042837405000704
878.133,-1.827623741490405
878.25,4.183558854491841
878.367,5.487484513156844
878.484,-2.5730008935184747
878.601,-4.732894445107012
878.718,-2.734541898581893
878.835,2.9665140829433954
878.952,4.581063557637215
879.069,9.617715759454729
879.186,19.29637904680949
879.303,10.332624318856405
879.42,1.204014529554477
879.537,-1.2708123571972068
879.654,-0.6874636181304443
879.771,-3.031845021945986
879.888,-15.443193477951075
880.005,-17.46017115152684
880.122,-16.795837454359695
880.239,-13.450192386449668
880.356,-7.423235947796751
