wavelength_nm,intensity
792.446,234.93181087972528
792.565,221.19847754639196
792.684,206.72704897496342
792.803,191.51752516543965
792.922,175.5699061178204
793.041,148.72315287106716
793.16,121.86427841219276
793.279,115.99501434292876
793.398,112.3872221351366
793.518,123.00540395331839
793.637,147.32228707020138
793.756,172.40626975418394
793.875,194.80886715678122
793.994,211.60540395331805
794.113,213.79761174552587
794.232,204.0270489749632
794.351,190.3136290615434
794.47,170.74046888838328
794.589,153.2227199706344
794.708,140.9222870702014
794.827,129.9725035204178
794.946,120.22791477582903
795.066,119.18029572820998
795.185,119.35865070656503
795.304,124.9880879360023
795.423,126.54566369357809
795.542,125.78895373686811
795.661,124.48852083643516
795.78,121.48072862864294
795.899,118.41839096630518
796.018,113.39761174552598
796.137,104.01925676717107
796.256,98.84782819574244
796.375,101.98722213513645
796.494,99.167308715223
796.613,95.80280655072086
796.732,92.52488447279876
796.851,85.20540395331821
796.97,67.37683252474687
797.089,58.34393209184647
797.208,57.28159442950876
797.327,69.7318108797252
797.446,75.91103165894594
797.565,88.1577849056992
797.684,100.03657278448708
797.803,107.38202732994165
797.922,111.15865070656507
798.041,113.11536066327503
798.16,112.33700568491997
798.279,106.7292134771277
798.398,94.2357069836212
798.517,87.4651442130585
798.636,85.56817451608883
798.755,89.47207061998499
798.874,92.43743858535305
798.993,92.81492776284227
799.112,103.8478281957427
799.231,108.9976117455262
799.35,104.27207061998502
799.469,99.64696239487677
799.588,95.08246023037456
799.707,89.80020914812343
799.826,83.1958801437944
799.945,77.44349919141342
800.064,91.51362906154336
800.183,104.02012256803685
800.302,104.54046888838323
800.421,111.97769832561265
800.54,114.81146455937883
800.659,121.9638455117597
800.778,128.42445157236574
800.897,128.2937156416298
801.016,140.40800135591553
801.135,136.89544724336145
801.254,131.5101658580801
801.373,125.93267668059094
801.492,124.00800135591561
801.611,135.79155113946535
801.729,147.3785641264783
801.848,155.87899702691118
801.967,159.47120481911895
802.086,149.30150784942208
802.205,138.8841918321061
802.324,116.22012256803691
802.443,94.91622646414083
802.562,78.8409017888162
802.681,68.19414854206293
802.8,57.214800684629964
802.919,45.85556775309376
803.038,37.08375090948688
803.157,24.036338602070785
803.276,8.802156989405141
803.394,-0.10925635810027057
803.513,-5.290642667611223
803.632,-12.37847485689177
803.751,-14.488379157112016
803.87,-21.732076609941572
803.989,-23.077287338860504
804.108,-28.96156372326801
804.227,-18.597577726739917
804.346,-10.700918994137712
804.465,6.25258130556884
804.583,2.2659743041185703
804.702,10.664647672448538
804.821,11.84930381431683
804.94,12.510677969306162
805.059,6.988017843700739
805.178,12.248094901593312
805.297,7.176473276964633
805.416,12.295141675948615
805.535,11.052118356414601
805.653,18.02780707109671
805.772,20.247337372637674
805.891,24.798722407951566
806.01,33.64935134480735
806.129,48.92260824688151
806.248,64.09469477173788
806.367,85.17505475467969
806.485,104.84647360019284
806.604,125.51033177014996
806.723,141.78841182026207
806.842,160.68207628595866
806.961,174.32379269970727
807.08,182.10576885371574
807.198,179.2020307220102
807.317,170.82989432190638
807.436,163.2906583547031
807.555,156.32025355633118
807.674,147.18101758912803
807.793,152.8149417950849
807.912,163.400381152557
808.03,179.8204525446613
808.149,196.57645467269637
808.268,218.27877714705187
808.387,241.24776628807433
808.506,257.3561493684908
808.624,261.86193504630984
808.743,267.4820064384146
808.862,255.73497826341998
808.981,242.76370766418282
809.1,222.86516433767295
809.219,203.6904305349725
809.337,185.0758698924452
809.456,173.54529193390061
809.575,159.0995624602043
809.694,151.4391143717894
809.812,140.14143684614504
809.931,147.44375932050067
810.05,152.75820300697762
810.169,171.59299301380094
810.288,186.11089990374126
810.406,197.65391501879003
810.525,203.0125145494232
810.644,202.27674178568415
810.763,207.33144521242122
810.882,218.67186292487244
811.0,221.5568693819124
811.119,231.51979791687427
811.238,243.03164420075382
811.357,243.66297100411396
811.475,244.92200343517985
811.594,241.66675015196023
811.713,250.0816267388704
811.832,258.48005310933047
811.95,268.98497298628405
812.069,262.8119707853154
812.188,268.0571504025286
812.307,265.0166157340274
812.425,271.7830074724526
812.544,270.0506979121767
812.663,267.9175225510347
812.782,273.348849354395
812.9,282.04251382009284
813.019,276.9240570736695
813.138,287.5830895047353
813.257,301.6810829747623
813.375,310.94444441015736
813.494,313.2502300879768
813.613,308.91878632856674
813.731,302.02890101071534
813.85,302.3727819266301
813.969,301.7253208512027
814.088,305.6787255766411
814.206,311.2788835488327
814.325,315.8149722569549
814.444,324.061017675034
814.562,332.5010024870526
814.681,339.15310851119256
814.8,353.48486821498636
814.918,352.1283162304683
815.037,350.6618075359935
815.156,351.997896244116
815.274,351.0396126578661
815.393,345.5142295045168
815.512,348.1455563078773
815.631,348.47904761340243
815.749,349.4887293951182
815.868,344.50793498635767
815.987,340.371296421753
816.105,349.04245006494045
816.224,355.1265907211149
816.343,356.57263613919406
816.461,360.6801534187451
816.58,345.3417832524087
816.698,331.4267897094488
816.817,310.54209919679204
816.936,290.25740868413527
817.055,279.022068820829
817.173,266.4715774423715
817.292,260.0656748085027
817.41,252.3212440361059
817.529,235.63222451912023
817.648,223.92762058655012
817.766,215.4628434938067
817.885,216.8309668339636
818.004,221.84151441654458
818.122,224.0572568043204
818.241,233.66260958170653
818.359,237.62553811666845
818.478,236.57028483344854
818.597,237.68478941617292
818.715,243.36040621445875
818.834,232.52409506499146
818.953,248.5967678098861
819.071,260.8464940295655
819.19,375.3188184663568
819.308,497.1067382535732
819.427,611.7110392915158
819.546,685.2549936091684
819.664,684.9944395029261
819.783,608.0114818017462
819.901,500.9793801767594
820.02,378.98175702919656
820.138,334.1965885803402
820.257,279.1093192866218
820.376,250.72952234522302
820.494,226.1089010966354
820.613,202.59390755367573
820.731,189.69103522283743
820.85,178.48340098723753
820.969,189.68182735769818
821.087,201.92181216971727
821.206,217.0336584535978
821.324,247.3913921833656
821.443,275.82791379192133
821.561,295.3674657035075
821.68,301.8031215111975
821.798,292.8621539422643
821.917,282.573134425279
822.035,265.51874694292593
822.154,249.4470434432568
822.273,239.76668193492952
822.391,225.53307367335552
822.51,220.01548272779885
822.628,212.30654979090033
822.747,211.58982464620948
822.865,208.2635756919947
822.984,210.73646093691414
823.102,210.85956263204992
823.221,217.9809327254539
823.339,221.1291426456977
823.458,229.53103221962107
823.576,229.9866014472243
823.695,239.5573221899789
823.813,234.27522907991977
823.932,228.8849108616355
824.05,216.56645411521254
824.169,213.75881987961196
824.287,206.19793889076448
824.406,203.10026136512033
824.524,202.5411119780042
824.643,207.38629159521716
824.761,204.05744523840423
824.88,200.85414000713257
824.998,201.73135425638048
825.117,205.8475295445894
825.235,216.36283903193248
825.354,228.66083250195948
825.472,234.6791722923327
825.591,235.88365926885302
825.709,237.4959384531656
825.828,226.91341244267298
825.946,216.7949556962496
826.064,206.2626461359734
826.183,206.1848820302427
826.301,213.5149101323043
826.42,219.1626871521147
826.538,232.9394685009293
826.657,247.52057885407308
826.775,244.64108314661073
826.894,237.54513722269817
827.012,222.26823891783334
827.13,209.87792069954855
827.249,195.27201806567928
827.367,178.8816998473942
827.486,165.5329400706674
827.604,157.4491153588755
827.723,155.67351575530859
827.841,158.5732408270663
827.959,169.55781438367256
828.078,181.30342690131778
828.196,190.42826019818386
828.315,204.75395929591582
828.433,216.12814324213252
828.552,225.79756528358737
828.67,231.3682860263409
828.788,221.50004573013342
828.907,200.71492231704298
829.025,165.35850581931845
829.143,130.7506655694344
829.262,101.04596103399236
829.38,72.60672310933978
829.499,58.37849275742359
829.617,48.33239719709852
829.735,40.825698157145084
829.854,39.66782305189564
829.972,49.4317625210208
830.091,72.11264275860265
830.209,94.4143549382548
830.327,119.82819859489464
830.446,156.01083174777392
830.564,180.47497558973325
830.682,208.15716937695697
830.801,224.57789130270876
830.919,236.90077773062507
831.037,237.19595853083584
831.156,217.09633413624147
831.274,189.8581816031192
831.392,161.83128448125228
831.511,142.26412761912565
831.629,137.7982694582975
831.747,133.7705065355645
831.866,142.12109859118635
831.984,154.0587036338211
832.102,157.01449049463753
832.221,145.57893536411208
832.339,136.08623737644382
832.457,138.39440518964153
832.576,140.3051704054367
832.694,145.88866289395926
832.812,145.8955320058584
832.93,149.5119249272812
833.049,136.03307975346584
833.167,120.86072808614387
833.285,110.58361451405989
833.404,113.8779295134045
833.522,123.20427914478383
833.64,139.6795465250811
833.759,147.8976710482356
833.877,160.47943193502658
833.995,163.23868199930678
834.113,184.10788877354355
834.232,197.25242022310482
834.35,212.4030122787266
834.468,225.6800112607553
834.586,234.3145860003596
834.705,233.62968022048338
834.823,220.16555366138653
834.941,193.465929266792
835.059,186.4018027076953
835.178,172.3385419494645
835.296,159.00948032543297
835.414,151.39470441568727
835.532,161.9262488522619
835.651,169.76255519359836
835.769,173.22050655658
835.887,176.50096874207244
836.005,200.9571885033223
836.124,216.46708791825165
836.242,226.1605371167307
836.36,231.62368328490658
836.478,254.3240588903119
836.596,260.41491068619337
836.715,272.7845503608628
836.833,288.15938484072706
836.951,307.95153533790733
837.069,312.36446505586673
837.188,314.4942778907092
837.306,319.14357124503215
837.424,338.13918494567537
837.542,342.41272072424067
837.66,354.81699243354217
837.779,374.9052468268262
837.897,380.0056224322313
838.015,367.3042664359047
838.133,355.6747719114396
838.251,352.30934665104354
838.369,346.5794192261452
838.487,340.1083662601213
838.606,343.9715124282965
838.724,353.90219106400434
838.842,358.9610082278507
838.96,360.7358427077145
839.078,361.855265932167
839.196,360.8197108016412
839.315,352.0542855412453
839.433,351.55639274838177
839.551,351.2567683537863
839.669,345.88528248732945
839.787,344.7614156684915
839.905,343.7890640011685
840.023,338.3760196931529
840.142,335.4218498440115
840.26,327.02092674811695
840.378,319.2935967258154
840.496,316.034664971912
840.614,306.26664230891765
840.732,296.5081434554471
840.85,294.41284806518
840.968,299.07253102989114
841.087,303.141737804126
841.205,306.79968916710556
841.323,311.0792855517301
841.441,319.79957457704734
841.559,321.76661684911767
841.677,326.90249029001916
841.795,332.04182693438406
841.913,348.07986487745006
842.031,354.522231824845
842.149,369.1620013696423
842.267,385.3402990529678
842.385,399.65193006962636
842.504,405.824167146891
842.622,415.9461877739392
842.74,415.895914028693
842.858,423.6897961276029
842.976,419.0810808239154
843.094,415.172798420661
843.212,414.0160311689217
843.33,407.0306924886109
843.448,401.1033624663088
843.566,402.0158592838336
843.684,401.0573604303629
843.802,406.4815455595762
843.92,406.80096878402765
844.038,414.4078378959249
844.156,418.5237979169128
844.274,427.6094549075975
844.392,433.5487915519619
844.51,445.3608554690535
844.628,452.14607955930535
844.746,449.1477538660075
844.864,436.1520255753072
844.982,425.42036654867627
845.1,394.74671618005414
845.218,374.51895325731954
845.336,341.38729423068884
845.454,321.64611139453416
845.572,294.7430237964748
845.69,265.02002277850204
845.808,240.78793085143852
845.926,228.8242371927733
846.044,204.35058682415126
846.162,185.36611394470663
846.28,166.98510426872508
846.398,147.76946255811146
846.516,123.07763037130734
846.634,102.0663176650227
846.752,90.78660669033974
846.87,80.49525955378948
846.988,74.8125356593498
847.106,62.57491503474921
847.224,59.42813887563604
847.342,48.964542876885375
847.46,39.479100748833716
847.578,28.01287783361773
847.696,23.80233000902829
847.814,22.148945305715188
847.932,25.945090560559272
848.05,22.250754141067326
848.168,24.534370152345126
848.285,34.87762753074593
848.403,40.85166695931424
848.521,43.77262078860565
848.639,54.37777024080448
848.757,72.97511824939022
848.875,87.57925616275728
848.993,104.14009366227197
849.111,124.39963246048788
849.229,144.92778597731848
849.347,152.6507446889544
849.465,163.53430946119676
849.582,169.0546707702358
849.7,174.3512225554653
849.818,175.8352202281407
849.936,175.30579798739615
850.054,177.4980207682965
850.172,179.9660011249543
850.29,189.67034511797547
850.408,203.43464582095342
850.525,209.01453093951568
850.643,226.79874506240697
850.761,242.4634786658178
850.879,248.13946768048402
850.997,246.38948266917618
851.115,244.76070977908034
851.233,244.63583299288044
851.35,240.8018652975897
851.468,235.75144738584856
851.586,246.85427622735418
851.704,268.12160723336183
851.822,290.2149122653433
851.94,322.76536015446743
852.057,362.21883834662174
852.175,414.95543342189296
852.293,470.03488564002146
852.411,517.3377144815266
852.529,562.3989848814734
852.647,609.3580907792558
852.764,641.3518287116701
852.882,674.6044411029588
853.0,700.8890881262822
853.118,725.3832589591295
853.236,739.6756981902453
853.353,744.0789599321836
853.471,735.4709662628666
853.589,721.3218470524242
853.707,689.6108230800769
853.824,658.7681973761282
853.942,626.5169136635214
854.06,592.8093528946376
854.178,560.1130475370093
854.296,525.2054867681255
854.413,483.4996576009736
854.531,454.0275946675879
854.649,416.5589949376655
854.767,381.8029493202971
854.884,344.672877728903
855.002,302.0008147955176
855.12,264.75386008724035
855.238,219.6133988854565
855.355,185.01752642826148
855.473,157.27533362474603
855.591,119.56143113317958
855.708,84.39009923139756
855.826,54.39594015578085
855.944,30.33933801103664
856.062,20.113186949732274
856.179,10.666185482891901
856.297,10.615523889512936
856.415,9.768795907656779
856.532,-0.9667714621135342
856.65,-13.959497959798902
856.768,-22.265888794720045
856.886,-30.846335542985774
857.003,-41.34515614578022
857.121,-47.06614750015473
857.239,-54.70798620029535
857.356,-52.31056492517745
857.474,-53.725301340593724
857.592,-41.62754787472102
857.709,-23.378758060414096
857.827,-6.776870852097903
857.945,4.824910263814662
858.062,19.874169519306527
858.18,36.8791033299436
858.298,45.31158959960477
858.415,46.70980948328071
858.533,59.5612408093248
858.651,68.95017098913279
858.768,75.2083652382049
858.886,81.73062875134636
859.003,92.7749701865658
859.121,89.6921396280091
859.239,81.48427798882412
859.356,67.33671164791377
859.474,51.46470569668899
859.592,42.87536870097365
859.709,36.51912268228785
859.827,27.558900176801522
859.944,18.966161750127885
860.062,8.933993668241914
860.18,4.078606421343547
860.297,2.8177576132538844
860.415,3.1103523845872925
860.532,11.70958726389685
860.65,17.58001770275223
860.768,11.645192419950586
860.885,12.496206699664594
861.003,21.160509340220926
861.12,23.111188360719694
861.238,32.508882943179366
861.356,37.40756828313277
861.473,41.98467753836795
861.591,42.049274425550664
861.708,35.06352806085526
861.826,34.25138175598577
861.943,28.874101871435364
862.061,23.78438093809124
862.178,16.725554285406044
862.296,8.279948009064817
862.414,5.441912676216434
862.531,1.6984213857704766
862.649,2.275517061299661
862.766,9.595134559732635
862.884,10.842101375205921
863.001,15.21047063869274
863.119,17.116469319914543
863.236,22.881079282251356
863.354,30.59454323992051
863.471,40.945354711560626
863.589,44.501499615318764
863.706,49.40254121070882
863.824,51.90918123772748
863.941,55.07209832102306
864.059,56.34497211427539
864.176,60.578019067700794
864.294,63.70890151896178
864.411,61.61207834251726
864.529,49.155082005899345
864.646,45.21063978183538
864.764,46.73113262270621
864.881,49.95811897007029
864.999,57.024932157261084
865.116,68.49174534445191
865.233,83.09189186497613
865.351,89.37861847208052
865.468,94.11382992766966
865.586,107.25077298499036
865.703,120.08901474360972
865.821,127.70820888318133
865.938,132.7672298625798
866.056,132.95612097184858
866.173,128.53635407245932
866.29,130.97026682674968
866.408,128.1764739533345
866.525,129.70216159939966
866.643,144.78109599871146
866.76,153.13448927248203
866.878,157.99351025188017
866.995,154.26292084166784
867.112,148.3531106522347
867.23,145.63983725933838
867.347,136.46595780583624
867.465,125.68688354713936
867.582,134.65759283822598
867.699,137.8767869777974
867.817,141.66394648533395
867.934,149.82772936949382
868.051,161.8581789203203
868.169,165.5812691637876
868.286,176.4169135198091
868.404,177.61186523513817
868.521,194.57824552189575
868.638,203.4009028649304
868.756,216.36901475341958
868.873,230.63149893628133
868.99,252.94246796762792
869.108,271.60062314616084
869.225,298.0977393636549
869.342,326.6684486547422
869.46,368.4547423614139
869.577,400.1328109598604
869.694,426.3857713331987
869.812,443.4248788926843
869.929,456.17480896299224
870.046,468.2797173882786
870.164,464.3144959434351
870.281,464.32676367608093
870.398,460.27149894119447
870.516,453.37380996388384
870.633,438.76443267488503
870.75,425.56025019108097
870.867,418.6002235514327
870.985,420.5492878208753
871.102,399.3554949474607
871.219,388.35650726885126
871.337,368.07959751231965
871.454,347.39679344809844
871.571,323.62783163584015
871.688,327.4606955111519
871.806,342.7301208208255
871.923,357.11033897723007
872.04,344.3412238631116
872.157,319.27299192868645
872.275,281.54633581464725
872.392,232.3136364733748
872.509,182.6749278391168
872.626,158.29748633923379
872.744,141.71775404047432
872.861,143.72738972502862
872.978,127.64355356157041
873.095,116.77443601283086
873.213,104.98670374547658
873.33,90.49247797162866
873.447,72.72639072591923
873.564,52.433896553802725
873.681,41.347462987746695
873.799,36.4064839671452
873.916,24.910526591565333
874.033,26.89162549304176
874.15,17.097773355545645
874.267,14.279958846646448
874.385,10.165792455408534
874.502,4.742687122189913
874.619,0.5492803022427077
874.736,-9.714588139555119
874.853,-13.697930259494791
874.97,-12.76232077964432
875.088,-13.788686768555184
875.205,-10.501858413039246
875.322,0.8638936790741336
875.439,9.134785118602162
875.556,12.646780435621677
875.673,9.29069356155978
875.791,10.080911819222955
875.908,10.256983761165817
876.025,7.080263832410145
876.142,3.1517428706602395
876.259,4.984647164641322
876.376,2.397619450618684
876.493,-1.2692696035689823
876.61,-3.65229175984462
876.728,0.1510481178514802
876.845,-3.0515436527971294
876.962,-7.012093235456512
877.079,-10.277328900334778
877.196,-10.070355161792742
877.313,-13.97194575723525
877.43,-13.393663005016384
877.547,-16.834489975454673
877.664,-12.098063455435714
877.781,-9.248465361818026
877.898,2.008344005394724
878.016,2.2424037546363818
878.133,7.986460760035963
878.25,3.738936135429281
878.367,6.758282706019516
878.484,-4.142600005895262
878.601,-5.801853761636203
878.718,-3.929707291090362
878.835,-5.654898936903326
878.952,-13.076704463360858
879.069,-10.55746162935871
879.186,-16.43505405405414
879.303,-17.31229715382046
879.42,-26.45127951625978
879.537,-25.716422590826312
879.654,-14.745631004037476
879.771,-14.843712220373014
879.888,-10.945279066343137
880.005,-12.975193717791452
880.122,-17.839270144621825
880.239,-25.53750834683426
880.356,-36.069908324428766
