wavelength_nm,intensity
792.446,237.45923725652688
792.565,221.74954028682993
792.684,206.1597567370464
792.803,190.68988660717628
792.922,175.3399298972194
793.041,140.6057307630203
793.16,128.1208822781718
793.279,125.5044320617215
793.398,128.57196452925393
793.518,140.0265099837994
793.637,162.0446918019813
793.756,182.9814883387778
793.875,207.3823541396436
793.994,227.86460522189466
794.113,239.9156874729769
794.232,233.8749948322843
794.351,216.48365284094234
794.47,184.89404245133204
794.589,162.57196452925416
794.708,140.15464851193815
794.827,122.37715933444898
794.946,113.84555760284721
795.066,109.90962686691648
795.185,118.10443206172168
795.304,129.3191506764403
795.423,132.37109872838838
795.542,130.92347968076933
795.661,123.2230467803365
795.78,115.02910738639704
795.899,103.60832816561783
796.018,99.21352297081262
796.137,91.92347968076928
796.256,96.5451247024143
796.375,93.30876106605064
796.494,94.42131517860474
796.613,95.842094399384
796.732,93.52694288423243
796.851,88.01179136908094
796.97,86.50356626085585
797.089,73.71049266778226
797.208,76.47326323055287
797.327,74.89231084960053
797.446,84.76763552492524
797.565,94.26460522189501
797.684,102.00486496215473
797.803,111.10616366345337
797.922,113.78581734310697
798.041,106.28971344700302
798.16,104.26373942102896
798.279,97.35984331713287
798.398,92.85508141237099
798.517,94.6957740530637
798.636,97.80746236475201
798.755,106.62650998379961
798.874,111.14945370674329
798.993,109.85334981063941
799.112,111.89923725652687
799.231,114.9633065205962
799.35,111.90962686691657
799.469,114.45508141237111
799.588,121.61785197514163
799.707,115.85075240804207
799.826,117.80140175869136
799.945,103.24469180198138
800.064,97.15291691020653
800.183,100.41871777600743
800.302,101.64815500544464
800.421,115.92434548163511
800.54,127.56330652059609
800.659,135.30096885825844
800.778,146.39534115263064
800.897,143.69577405306356
801.016,146.0048649621545
801.135,153.694042451332
801.254,159.60399916128875
801.373,166.30010305739268
801.492,154.96157491886453
801.611,160.37196452925414
801.729,158.4836528409424
801.848,171.05421561150519
801.967,175.6100597673493
802.086,179.6464234037129
802.205,174.29750565479517
802.324,159.94425890154844
802.443,127.44815500544456
802.562,97.24122185307047
802.681,64.45033433895503
802.8,49.94321763593574
802.919,33.965010074222334
803.038,23.116194266001653
803.157,12.779176560966821
803.276,8.744010879317393
803.394,5.33471315013296
803.513,-5.583501460999109
803.632,-10.604890833900257
803.751,-13.26421542110594
803.87,-16.16041130773322
803.989,-11.718730852604695
804.108,-15.844942283199877
804.227,-12.051953597770993
804.346,-17.348236476353243
804.465,-13.361150434397668
804.583,-4.685922873971808
804.702,-1.1297743867247156
804.821,2.7592053512272554
804.94,11.249575925290298
805.059,8.430717219385993
805.178,5.564000032165404
805.297,-0.8219454918574907
805.416,9.585713879835215
805.535,17.496861325146494
805.653,17.484819840624716
805.772,25.910415529798385
805.891,25.89521194351582
806.01,31.94646790621544
806.129,42.725981702329825
806.248,68.75874615179073
806.367,98.18722329201475
806.485,123.67265119355844
806.604,150.03028069748729
806.723,177.8972767171901
806.842,194.50238746539648
806.961,214.78195708806163
807.08,217.30135355055347
807.198,213.19650758880294
807.317,195.4154711508619
807.436,176.32014899863526
807.555,160.55036797194987
807.674,155.24292460760233
807.793,160.46968037745387
807.912,174.872193723063
808.03,184.64007503404014
808.149,202.36812950519027
808.268,229.77324025339658
808.387,260.2406886639406
808.506,279.9548903212378
808.624,294.6595681690113
808.743,297.05342350596226
808.862,289.3347247303592
808.981,273.06277920150933
809.1,248.7891020709279
809.219,239.4210526459741
809.337,220.51707248508967
809.456,198.33776764888063
809.575,187.10911216332102
809.694,175.46400646131133
809.812,174.30980985021068
809.931,179.73656562006238
810.05,190.69492312151579
810.169,219.16583473552322
810.288,233.80211431489863
810.406,243.36566662154678
810.525,251.8755392745154
810.644,241.05554179761387
810.763,243.11260059776862
810.882,247.3029927312567
811.0,258.01026798162775
811.119,269.70195881641456
811.238,271.86724272479444
811.357,275.09832749897527
811.475,273.055819199563
811.594,274.6089818958218
811.713,284.454785284721
811.832,298.28413845717
811.95,308.8953098114371
812.069,308.5627582219811
812.188,304.1297737320922
812.307,305.0015511469652
812.425,301.0525493410589
812.544,297.5546297862348
812.663,291.04199161669186
812.782,293.4791369969324
812.9,294.25221311310366
813.019,305.39325459724
813.138,313.07282421990453
813.257,331.28139817157336
813.375,345.6986301319
813.494,344.59464997101446
813.613,350.6499771694363
813.731,349.65941692197055
813.85,340.0376878433361
813.969,335.5553527040957
814.088,328.13189202372996
814.206,338.48678632171925
814.325,347.1931957712236
814.444,354.28488660600914
814.562,370.0631575273745
814.681,376.99727260458394
814.8,383.74783789824363
814.918,376.16593565943583
815.037,381.2299208665156
815.156,387.20905758874693
815.274,390.8115709343549
815.393,386.47036133624
815.512,382.19408680306015
815.631,383.24941400148197
815.749,380.3540918492545
815.868,379.40595584421317
815.987,389.1331445144965
816.105,395.91487863932514
816.224,410.6567859243271
816.343,412.4315936422295
816.461,402.3786957324261
816.58,384.2513389481637
816.698,362.9612116011306
816.817,343.27021845323173
816.936,321.69264521875266
817.055,305.7358512050529
817.173,296.9721307844269
817.292,287.28719824258894
817.41,269.2325687310541
817.529,258.7666838082637
817.648,245.1951711798456
817.766,238.65049837826726
817.885,234.51448358534697
818.004,238.15595796991573
818.122,245.79916395621615
818.241,248.86055176069829
818.359,259.4015932448341
818.478,269.94609793243296
818.597,261.03865456808364
818.715,264.96597187313415
818.834,285.2649634716458
818.953,315.2291679680783
819.071,421.3862316403877
819.19,526.7973639785231
819.308,662.9834464053524
819.427,762.8412452431362
819.546,804.2133508442336
819.664,772.8920865147579
819.783,680.4802638057974
819.901,554.5701960493219
820.02,467.43510142471223
820.138,364.82885144525034
820.257,313.54780086993543
820.376,266.7068126006719
820.494,243.73254775147657
820.613,218.55237711439958
820.731,204.9038082089242
820.85,207.38078042898988
820.969,220.46208165338453
821.087,236.0819110163073
821.206,266.82035509784487
821.324,291.7761151966986
821.443,317.433173996851
821.561,328.5915314983022
821.68,331.07629592616024
821.798,322.03984823280575
821.917,306.34106287711353
822.035,281.19119527033894
822.154,268.1512843735209
822.273,258.44730421263364
822.391,254.06973097815327
822.51,258.77960363111885
822.628,254.1535455481536
822.747,257.89631863401934
822.865,257.7983990791927
822.984,252.80004662393327
823.102,254.46749503447478
823.221,251.90117721125017
823.339,254.22750008066635
823.458,263.93304372930317
823.576,260.4914012307538
823.695,265.6480271304727
823.813,268.0288954544342
823.932,258.9301100987419
824.05,253.9551342668593
824.169,248.26240951722787
824.287,240.11946831738007
824.406,230.31765265865772
824.524,226.6604257445241
824.643,224.5270083542
824.761,225.66891563920055
824.88,229.35021686359494
824.998,236.8756739321453
825.117,245.66693186649672
825.235,249.53784348050175
825.354,249.26416634991793
825.472,253.360186189031
825.591,247.36616273810083
825.709,252.7383730534043
825.828,260.23179548992005
825.946,253.19621359743172
826.064,251.11041525472706
826.183,247.74496323236883
826.301,247.03578826628762
826.42,240.88938386297698
826.538,238.87717859386547
826.657,245.79224605202648
826.775,244.91683731971133
826.894,238.63363637960398
827.012,234.97814106720222
827.13,232.6499184820732
827.249,225.01173918698746
827.367,212.45840837675019
827.486,200.6834325448679
827.604,188.60802381255272
827.723,177.3854289330514
827.841,170.8208427115588
827.959,167.33677597058562
828.078,180.39123736814054
828.196,201.5946165146131
828.315,217.3503766134665
828.433,235.9502925564757
828.552,250.1813773306536
828.67,251.64189933426874
828.788,235.3950620305246
828.907,201.60117591663146
829.025,170.16639177613084
829.143,131.97208313712463
829.262,98.20842541028071
829.38,80.3047885538847
829.499,67.8677223261397
829.617,58.2676979685528
829.735,58.53234201713115
829.854,63.383251313547156
829.972,70.13970485002233
830.091,83.89639583156035
830.209,107.6795472362032
830.327,135.74078888964206
830.446,165.86297584202433
830.564,195.8031733951647
830.682,225.18233198726588
830.801,245.35889317676947
830.919,240.7700864009051
831.037,233.76656101032225
831.156,211.71801397471768
831.274,181.64868771833392
831.392,154.9733008558895
831.511,141.59661529214628
831.629,141.75326306173628
831.747,144.23978096119635
831.866,150.9314936658511
831.984,164.4881414354408
832.102,176.29673725697853
832.221,162.3919131650964
832.339,156.1814613675866
832.457,159.85152905059624
832.576,156.55969197170123
832.694,150.0964263213777
832.812,149.34571478360834
832.93,150.50236255319834
833.049,151.1334691972473
833.167,142.5775628542833
833.285,143.45369114335375
833.404,149.14107484367955
833.522,147.14620746175413
833.64,146.3045868330754
833.759,147.61274975418016
833.877,151.83433258870477
833.995,158.25331802063184
834.113,179.55455453480997
834.232,203.21509840829532
834.35,229.28343448957295
834.468,253.7214675405475
834.586,263.87292050494204
834.705,269.4728583178215
834.823,255.95244981035478
834.941,234.9437296145763
835.059,219.52288820667658
835.178,203.72542342215328
835.296,190.10544781511913
835.414,183.05949818211087
835.532,182.37978231533646
835.651,194.38058592908158
835.769,202.11125967269697
835.887,222.08868666306546
836.005,241.29295348027375
836.124,259.2695146697764
836.242,274.4945607077641
836.36,293.65207427821935
836.478,307.37841901750596
836.596,321.5454563974853
836.715,327.9367362017071
836.833,334.3141631920761
836.951,334.34873303958796
837.069,338.8153375191346
837.188,346.65769957443865
837.306,358.99703132671254
837.424,374.83939338201674
837.542,385.1951753507408
837.66,387.1068014753091
837.779,391.0868258682757
837.897,390.1759411703332
838.015,386.45380106113544
838.133,382.92733194760876
838.251,384.4467502799697
838.369,395.0423590885211
838.487,393.0578813169858
838.606,390.36431263635944
838.724,396.762518847508
838.842,392.6637553616866
838.96,386.2913988022721
839.078,388.28873921255445
839.196,385.7397592765165
839.315,389.59337674307596
839.433,392.0279465905877
839.551,389.76121773680075
839.669,384.91007329859815
839.787,375.7143401158069
839.905,367.7160095304184
840.023,362.86053608788694
840.142,353.62411026440316
840.26,352.90629915953417
840.378,353.16251402869125
840.496,346.1806336597532
840.614,337.09572298778505
840.732,333.69912400412875
840.85,329.2280661460136
840.968,322.6002983311886
841.087,327.01841796225074
841.205,334.8547194114946
841.323,339.9663455360631
841.441,342.89701927967906
841.559,354.84587484147676
841.677,365.36096416950824
841.795,376.43795825944426
841.913,383.01625105067876
842.031,397.71575596312516
842.149,410.0057370660477
842.267,421.88532855858057
842.385,433.2748767610703
842.504,446.7406154397506
842.622,452.9578692699462
842.74,456.55261227763106
842.858,457.0746280125886
842.976,459.06504201594436
843.094,451.64160320544744
843.212,446.98526396205034
843.33,444.9626909524196
843.448,432.0466114492825
843.566,419.85260986822345
843.684,416.94951737807355
843.802,419.3312733727722
843.92,420.9719038263455
844.038,428.60560787299244
844.156,443.3752426555702
844.274,460.64098133425176
844.392,463.29546460167796
844.51,474.44345436261074
844.628,484.10572983782924
844.746,474.12558107062364
844.864,457.35062710861285
844.982,449.8206947916236
845.1,433.22409580796773
845.218,407.16862236543716
845.336,378.73392814368594
845.454,352.2784547011555
845.572,319.4896479252917
845.69,270.63850348709013
845.808,242.4055408670705
845.926,229.6184656929382
846.044,212.66688835430375
846.162,200.412280712639
846.28,189.3299674432688
846.398,170.65977538601982
846.516,155.56534090452845
846.634,127.23107958321027
846.752,115.5790693441432
846.87,105.51580369382066
846.988,87.74895304827308
847.106,71.96981620036176
847.224,60.91896768821562
847.342,49.83126536111
847.46,42.3085536204743
847.578,29.831242507949113
847.696,25.83981579176122
847.814,27.470715836597467
847.932,25.720229168347505
848.05,19.946401603492955
848.168,32.820594580563295
848.285,49.82230916254052
848.403,57.19064490926736
848.521,72.20620015722004
848.639,86.8098154490637
848.757,108.64146020616599
848.875,121.50676094279818
848.993,136.93388856158387
849.111,150.24066986002316
849.229,156.20632561733692
849.347,151.74167834434758
849.465,158.27356786789494
849.582,158.38727557326052
849.7,161.67154604918863
849.818,166.64412821342844
849.936,178.1214722824301
850.054,186.34946570208115
850.172,195.26057600484913
850.29,207.01757375350456
850.408,217.80833773592636
850.525,229.24845236769872
850.643,232.8106449215489
850.761,237.50184180440334
850.879,248.05018154440052
850.997,262.0115082973847
851.115,263.06201253954623
851.233,269.0224734916643
851.35,269.7526314134793
851.468,274.5217503742553
851.586,278.7229039670658
851.704,296.30847314429184
851.822,329.8905791180548
851.94,364.2536374727701
852.057,404.79937981016946
852.175,456.53819574064227
852.293,512.2804748745782
852.411,565.9448319305919
852.529,613.9096218870386
852.647,650.8744118434854
852.764,685.7725351332656
852.882,712.8472817996692
853.0,746.7809029249474
853.118,768.6443941800958
853.236,787.3944655218245
853.353,790.4752727942889
853.471,783.2902792009526
853.589,764.0585323608632
853.707,732.7531924471806
853.824,701.8002334858791
853.942,679.7823394596426
854.06,646.2302462992067
854.178,615.3829150435326
854.296,576.885367337642
854.413,544.4060014499331
854.531,505.35867019425893
854.649,451.4827675100134
854.767,406.8527522716553
854.884,361.08420889476923
855.002,304.01523261745035
855.12,264.878723872599
855.238,223.92749651302898
855.355,190.6801652573551
855.473,165.10209807094532
855.591,130.22093916234127
855.708,101.36322129967378
855.826,64.7241224584867
855.944,28.78330827800611
856.062,7.696260821195029
856.179,-8.56589288815493
856.297,-13.068440830930113
856.415,-11.771696623731554
856.532,-13.605695902341655
856.65,-11.879688952276622
856.768,-20.159025375550563
856.886,-27.351840892757412
857.003,-29.32114768665994
857.121,-27.1571302134873
857.239,-31.02400343902101
857.356,-28.28130033226902
857.474,-24.918522086056793
857.592,-21.564631152196842
857.709,-16.739518110070115
857.827,-4.935993119545251
857.945,17.40925486059459
858.062,37.15135754784322
858.18,49.000153537184715
858.298,61.84879725544229
858.415,64.70082358851768
858.533,72.02732917239004
858.651,75.89322869565629
858.768,72.43964769944202
858.886,73.24061215777323
859.003,72.02945540398335
859.121,66.45466228655748
859.239,59.13354882281128
859.356,51.82109336772308
859.474,55.85149505549201
859.592,49.229749726904394
859.709,34.49855807270115
859.827,24.873183110169307
859.944,12.626929380970399
860.062,2.8279498838733064
860.18,-3.638144602891569
860.297,-1.2815411550083584
860.415,8.316954590390262
860.532,11.179919417902052
860.65,14.893678345794667
860.768,19.557824030697716
860.885,20.047117944756984
861.003,20.73714543945153
861.12,29.614570878471817
861.238,38.251883987090736
861.356,46.28995201313716
861.473,52.00520859077143
861.591,63.13085477879514
861.708,61.25372288749402
861.826,59.87079514142851
861.943,48.87926394419995
862.061,36.28596271182023
862.178,21.616136808843734
862.296,11.065507104840918
862.414,5.152094872511152
862.531,6.608970829472298
862.649,6.062169824643627
862.766,10.410847967692133
862.884,6.062347338728231
863.001,5.674200055124711
863.119,11.397309768252228
863.236,17.898136174722847
863.354,23.28541047214334
863.471,28.529831715382016
863.589,35.68429615271936
863.706,39.54993842795919
863.824,44.32533148823661
863.941,47.85397130176071
864.059,55.76616089883471
864.176,65.46016867772715
864.294,63.08144918389256
864.411,60.410088997417475
864.529,51.605395477609214
864.646,49.260442217541396
864.764,52.13193917392376
864.881,51.42508115195117
864.999,65.8775304892859
865.116,76.40703610367694
865.233,82.95385773538396
865.351,103.37860144501315
865.468,122.03884299014032
865.586,148.11640055258357
865.703,168.02945595052466
865.821,179.45766286361734
865.938,183.2927961836363
866.056,172.72706370278945
866.173,152.69985936047067
866.29,146.97655112204802
866.408,144.53549396587647
866.525,151.69097360624153
866.643,159.90532770548086
866.76,169.2365649216032
866.878,174.41022638014965
866.995,168.8600783148865
867.112,156.7904497301427
867.23,144.27406789864546
867.347,140.13777264723467
867.465,143.68805748240376
867.582,150.71713019636053
867.699,154.6475016116161
867.817,154.8350158840146
867.934,152.75846089234398
868.051,161.08623490500236
868.169,161.78543748908942
868.286,172.94524613378246
868.404,187.78124525466586
868.521,204.7038244621294
868.638,221.6341958773851
868.756,245.46153698961044
868.873,270.9486183615759
868.99,302.5776910755327
869.108,325.15156898429484
869.225,348.41462438223436
869.342,382.92832913082316
869.46,418.61909015646813
869.577,450.9648295370913
869.694,473.76814467529016
869.812,485.0506805927095
869.929,497.0184978954105
870.046,497.07592558772194
870.164,497.8043489510288
870.281,508.4992225307857
870.398,512.9317584482048
870.516,513.2967618980913
870.633,506.34055322676556
870.75,495.626768797864
870.867,491.26969432567256
870.985,477.0061263469877
871.102,465.9035973293418
871.219,441.94565705628474
871.337,419.6898812853924
871.454,397.6739323543271
871.571,374.15495312023177
871.688,346.8480950982579
871.806,325.0953496303965
871.923,306.1599201798514
872.04,285.15868986350523
872.157,258.20248119218076
872.275,244.46012533470906
872.392,226.36971752918532
872.509,212.04034868470063
872.626,190.7698542990904
872.744,176.88897030309056
872.861,167.5431512421556
872.978,146.25447503836355
873.095,123.73809320686583
873.213,107.9688975225541
873.33,93.59970183824225
873.447,81.20020312362735
873.564,62.31066111896913
873.681,59.41159530478689
873.799,51.37676960617462
873.916,34.854355766211825
874.033,21.34030154119896
874.15,16.762947424773163
874.267,8.211183048153613
874.385,-1.5452302911162652
874.502,-8.418427763362118
874.619,-9.818364402832115
874.736,-12.960067240695865
874.853,-15.2121426522793
874.97,-14.596267160746363
875.088,-5.092144507171749
875.205,-3.770362215026957
875.322,3.9230206315887526
875.439,9.896666496945878
875.556,11.573459228314618
875.673,15.377294451527723
875.791,17.13774354757506
875.908,13.11516961710576
876.025,6.69446326660074
876.142,3.4498297734200563
876.259,5.115797947849157
876.376,-3.376880771754755
876.493,-15.004956833063789
876.61,-19.247553727809024
876.728,-17.58304133905601
876.845,-9.763311123186327
876.962,-12.088859918565108
877.079,-1.359494287462435
877.196,3.2957113002248803
877.313,-4.6209453078649565
877.43,-9.816105150008255
877.547,-13.654004149014344
877.664,-18.81659444560151
877.781,-16.601683555683575
877.898,-20.039686298796468
878.016,-12.468170081516075
878.133,-9.007020136263883
878.25,-5.558410164424993
878.367,0.038974630643542785
878.484,2.819811752016017
878.601,1.8561992487567949
878.718,-3.537188887807258
878.835,-7.14139930522483
878.952,-7.736327572426189
879.069,-15.336297348912918
879.186,-24.88272911539243
879.303,-33.18640730447042
879.42,-30.17998720294229
879.537,-24.05704999832487
879.654,-27.784951190995486
879.771,-24.972368998923052
879.888,-24.710991056974752
880.005,-22.994981717330155
880.122,-22.05777003759636
880.239,-21.8993560177734
880.356,-22.519739657861283
