wavelength_nm,intensity
792.446,252.95775105020883
792.565,229.75956923202708
792.684,207.6332488857068
792.803,186.57879001124795
792.922,166.5961926086503
793.041,136.2784436909014
793.16,119.80744801990576
793.279,111.83255624501402
793.398,107.85333546579322
793.518,118.17541338787109
793.637,144.9684869809446
793.756,175.77714498960256
793.875,214.6152402276977
793.994,231.47324888570628
794.113,235.81264282510028
794.232,224.73298914544665
794.351,204.26199347445106
794.47,174.99186360432128
794.589,154.2767120891698
794.708,134.93558654804428
794.827,124.86026187271963
794.946,113.85766447012226
795.066,115.16848698094475
795.185,124.40831382077155
795.304,139.27584628830397
795.423,147.06372507618272
795.542,150.8801752926329
795.661,145.99965581211342
795.78,134.53472074717843
795.899,124.77541338787114
796.018,111.545976158434
796.137,99.97541338787126
796.256,101.64814066059853
796.375,107.90355191600973
796.494,110.40398481644257
796.613,112.25073806319577
796.732,102.13125754371526
796.851,93.81870343116123
796.97,78.7477077601656
797.089,65.9104783229362
797.208,66.73818395064185
797.327,79.04121425367217
797.446,87.58580299826087
797.565,99.98580299826081
797.684,110.04554325800103
797.803,116.47671208916981
797.922,124.25853027098796
798.041,115.21437442683214
798.16,106.00485061730835
798.279,102.62476403722185
798.398,94.61350862596646
798.517,96.36415797661579
798.636,102.541647154105
798.755,107.32259953505738
798.874,116.35809737055521
798.993,115.24900646146429
799.112,115.92086793332567
799.231,125.03515364761137
799.35,113.1797423922001
799.469,109.17541338787106
799.588,105.22909304155077
799.707,100.89316230562011
799.826,94.51307572553355
799.945,92.72606273852057
800.064,98.53991555237337
800.183,108.47930949176728
800.302,102.01783763029545
800.421,115.86718827964603
800.54,127.46285927531702
800.659,135.38926620172393
800.778,147.3909978034555
800.897,152.28883330129096
801.016,164.80831382077145
801.135,166.4879675004251
801.254,165.36675537921298
801.373,168.940781353239
801.492,169.05420126665894
801.611,175.00571641817407
801.729,180.55203676449452
801.848,187.42562983808756
801.967,200.34424455670225
802.086,186.7563657688235
802.205,168.5814739939317
802.324,152.34770776016546
802.443,125.73461780002313
802.562,101.04540599512728
802.681,75.53177189604929
802.8,60.819345686072964
802.919,42.645581328507006
803.038,23.586516504862434
803.157,12.547392599938812
803.276,6.268605519041875
803.394,-1.6350446467707735
803.513,-5.741905027677401
803.632,-7.071420537638833
803.751,-13.944250789519476
803.87,-25.546178570998677
803.989,-25.16194020734275
804.108,-27.526954402035578
804.227,-25.841751712114508
804.346,-15.924697121065908
804.465,0.7753924328144186
804.583,12.534005999237468
804.702,14.140325018124694
804.821,15.164117564292972
804.94,14.203113764847103
805.059,7.988787136449133
805.178,5.023003361891629
805.297,5.323229559249107
805.416,9.598302166484235
805.535,15.943467581245418
805.653,20.757802407780908
805.772,22.585544560820804
805.891,24.648881293739215
806.01,26.30761010603916
806.129,41.60685531980084
806.248,70.87367833891886
806.367,100.13289975398035
806.485,137.88691651543257
806.604,168.491454939626
806.723,185.43930675841773
806.842,202.54560013565106
806.961,209.2008112618022
807.08,208.3166284485594
807.198,211.6038742067452
807.317,205.08332775713876
807.436,188.84416658891757
807.555,171.7418019574929
807.674,157.76844165507242
807.793,160.0002761578466
807.912,168.4399028684129
808.03,185.4301789296286
808.149,215.27153724192647
808.268,248.54319858452723
808.387,279.8139941262622
808.506,301.02072040392767
808.624,308.8594813136277
808.743,313.20646733155263
808.862,301.0054014014255
808.981,280.9497900167529
809.1,256.5573820952837
809.219,238.51389192273228
809.337,221.6011376809168
809.456,200.16197651269445
809.575,185.0076638293205
809.694,179.54599183858699
809.812,174.2098609733945
809.931,179.72221495668683
810.05,191.3999369053471
810.169,204.9460571224057
810.288,221.68957993686678
810.406,244.0521503703755
810.525,248.6138550030184
810.644,256.5296721897738
810.763,263.30782703886683
810.882,273.41238881436664
811.0,281.01132288423867
811.119,280.7912093350632
811.238,294.1659009806925
811.357,301.43496492069414
811.475,286.255544012211
811.594,287.7921404197451
811.713,293.4421567406994
811.832,298.70775747723815
811.95,304.78115042156924
812.069,305.8398247511817
812.188,308.7928713751665
812.307,303.47578812902134
812.425,289.0955014196726
812.544,276.100496095605
812.663,266.18427865032527
812.782,256.0048577418419
812.9,246.85400826192978
813.019,245.63129731015619
813.138,251.3064218562181
813.257,265.34691436764797
813.375,276.5423852340562
813.494,279.383743546352
813.613,292.7904698240157
813.731,296.9547718592553
813.85,297.553705929127
813.969,298.79593004228894
814.088,303.5359896532866
814.206,315.92713151536657
814.325,333.4264984856717
814.444,351.0938308239421
814.562,378.00531900636827
814.681,392.3973266693138
814.8,411.47331701624194
814.918,406.78047619433903
815.037,404.68676957157027
815.156,404.6069157626543
815.274,398.150438577115
815.393,399.52253282014703
815.512,393.66692143547334
815.631,394.2450762845658
815.749,406.9349194453464
815.868,412.6429444243089
815.987,429.4384152907173
816.105,438.45379957703904
816.224,439.24667304085034
816.343,437.4611915263067
816.461,410.1086104446636
816.58,387.01057481756607
816.698,371.91946559739483
816.817,351.71666806553515
816.936,332.2974203172251
817.055,318.769081659824
817.173,309.70394646562636
817.292,305.7487679813855
817.41,289.810039713595
817.529,284.3163330908262
817.648,275.7845312299622
817.766,264.5358462522151
817.885,252.83521322251988
818.004,247.23934209758667
818.122,241.93611166529422
818.241,247.01902841914898
818.359,250.5296508007092
818.478,260.93724287923897
818.597,269.05208826560437
818.715,283.2823531333763
818.834,291.33729435603516
818.953,295.8397247024374
819.071,297.3280053473077
819.19,298.3909803519231
819.308,294.2347856731584
819.427,294.0647436691519
819.546,296.5185769674016
819.664,321.31861020957734
819.783,347.6330847252151
819.901,368.0010485947222
820.02,377.9700539357479
820.138,369.6630225457126
820.257,337.1450295307595
820.376,293.15853121954933
820.494,247.95981470776115
820.613,230.9223851412703
820.731,220.8407997306237
820.85,212.33930090006362
820.969,218.72697955868097
821.087,237.39604349868358
821.206,257.0443282179069
821.324,285.2077644522817
821.443,321.75907947453527
821.561,353.90087068726507
821.68,370.6123588696919
821.798,358.2831544114262
821.917,337.09334389255434
822.035,311.6082952784444
822.154,283.94662328771096
822.273,265.6485876606139
822.391,255.90293298589765
822.51,250.68281943672253
822.628,245.0150868399284
822.747,241.749085844866
822.865,239.73503290175165
822.984,245.8032310408884
823.102,251.92510883370468
823.221,264.83053641007075
823.339,266.5766566271294
823.458,277.787711909123
823.576,276.40049879284834
823.695,281.5284371917253
823.813,273.05550978973645
823.932,268.66223606740107
824.05,257.26982814593146
824.169,257.0393249863665
824.287,246.42094303892287
824.406,249.58611087502865
824.524,250.03526139511712
824.643,255.930299361093
824.761,247.30672260845438
824.88,252.90998568265564
824.998,251.99723144083987
825.117,257.31910923365626
825.235,260.2531082385938
825.354,260.7533410097652
825.472,264.3288984562611
825.591,262.2499104482115
825.709,255.21854148778095
825.828,255.46942360960122
825.946,247.08827109938673
826.064,245.4776813597348
826.183,242.4385201915115
826.301,242.26948889341804
826.42,248.3021891970561
826.538,257.5089154747202
826.657,270.72083655757905
826.775,268.07388318156325
826.894,262.31610729472504
827.012,253.931491581047
827.13,243.41094513143833
827.249,228.49126448269567
827.367,212.4694193317886
827.486,205.78177331508076
827.604,204.8967247009702
827.723,193.88873236391566
827.841,193.659095005216
827.959,195.90911132616984
828.078,201.42319691119286
828.196,203.03684959578297
828.315,216.2409784708492
828.433,231.84770474851285
828.552,238.80421457595997
828.67,236.56418760687018
828.788,227.71983163345135
828.907,203.69057393532552
829.025,162.25818657020764
829.143,122.34841585466677
829.262,95.78800611487917
829.38,74.62107160378181
829.499,60.04737331581831
829.617,58.33801348912489
829.735,56.64832611220959
829.854,54.14932502761974
829.972,56.37802796482852
830.091,69.50745404383164
830.209,96.29510773156639
830.327,127.68739491238185
830.446,168.68893907860706
830.564,213.48676529862615
830.682,248.26905856612416
830.801,263.86892685883714
830.919,267.70689038964554
831.037,254.12407469967482
831.156,229.9680988365439
831.274,201.98181994310977
831.392,180.8743289284635
831.511,173.90363445061388
831.629,176.09311313293733
831.747,165.1146264472955
831.866,165.6651440906581
831.984,169.58276130112023
832.102,169.2008114120151
832.221,160.74093944498776
832.339,160.73821033510325
832.457,165.49825178798926
832.576,170.30418068676275
832.694,165.82612690155375
832.812,169.9749129431846
832.93,173.41201067312733
833.049,169.90105645501802
833.167,150.62386847067512
833.285,145.75533849499016
833.404,152.7933020257986
833.522,155.78451230985365
833.64,165.3930386112247
833.759,177.5747250857558
833.877,188.7901777940532
833.995,196.1060634027834
834.113,201.64445983402453
834.232,223.2616441440535
834.35,253.28835226360638
834.468,263.5289131970121
834.586,283.3305130914569
834.705,292.61436406815295
834.823,289.7908557374898
834.941,269.9058755453547
835.059,248.03907717140137
835.178,233.31946494463406
835.296,217.56002587803985
835.414,205.2404136512724
835.532,206.88876679247045
835.651,217.36482556137423
835.769,226.25127394066777
835.887,235.4641292463684
836.005,258.9497118247963
836.124,280.12880089673075
836.242,299.62737048814574
836.36,313.6748578284786
836.478,331.0461546926209
836.596,350.5066290459407
836.715,354.9393977715547
836.833,364.953984678987
836.951,383.1729005907483
837.069,387.316491827185
837.188,391.77263717617586
837.306,396.3725054688897
837.424,411.46414865337834
837.542,426.46574854782364
837.66,435.5539285288488
837.779,441.98496565273126
837.897,442.9294226900335
838.015,426.80201825547425
838.133,419.3066484529496
838.251,415.95673319587945
838.369,420.4726188046103
838.487,421.9443485691854
838.606,420.5823120999944
838.724,419.41854402907177
838.842,417.7093214126945
838.96,409.845120441339
839.078,416.4363307253947
839.196,419.94009512200444
839.315,430.8438595186143
839.433,422.53203949963995
839.551,413.9050679655139
839.669,401.8166245699162
839.787,399.3835924297298
839.905,397.7133308523139
840.023,389.3703420021708
840.142,385.5494310741055
840.26,380.4263556438757
840.378,363.9967867071524
840.496,355.10920911242033
840.614,348.9186012146578
840.732,355.8717162606181
840.85,350.79799147973847
840.968,344.7407169153091
841.087,352.62976269720014
841.205,352.21318077346336
841.323,363.47019192331965
841.441,373.53326367923665
841.559,391.52447396329205
841.677,406.2957708274338
841.795,408.23416725867503
841.913,413.1379316552842
842.031,424.24169605189354
842.149,431.5783608814032
842.267,446.87260146848877
842.385,453.1062359949685
842.504,468.3493943309718
842.622,484.8722063466288
842.74,484.96298373025115
842.858,489.604410464523
842.976,487.9384778914357
843.094,486.7080431538461
843.212,480.65076858941677
843.33,474.09219532368877
843.448,470.57777790211645
843.566,470.8547024718862
843.684,469.1394192494481
843.802,471.84231784519204
843.92,464.41534631106583
844.038,470.1831799717446
844.156,476.68088376229343
844.274,485.00023257448726
844.392,498.10919177629137
844.51,511.23373539367986
844.628,525.1141231669125
844.746,522.6672382128723
844.864,515.7891844276634
844.982,499.33710466842854
845.1,472.6625140866828
845.218,441.0442005612142
845.336,402.2683112781699
845.454,369.09242199512556
845.572,335.45159764714595
845.69,299.11034039873334
845.808,273.2106415918789
845.926,250.29882157290342
846.044,232.07011843704487
846.162,218.13665339642432
846.28,190.03262558524102
846.398,182.3640956095556
846.516,163.86872580703016
846.634,141.25214388329255
846.752,124.38015070414372
846.87,110.78694540378277
846.988,103.12014702982877
847.106,89.80820688236594
847.224,72.3592021103095
847.342,67.08629892361671
847.46,47.5298300782913
847.578,34.520395943275645
847.696,24.79736085581783
847.814,24.51100691240833
847.932,33.90370227499094
848.05,36.752536306410306
848.168,47.73493664666607
848.285,60.02520589037754
848.403,66.46818227977802
848.521,79.78191241463273
848.639,85.290724821281
848.757,99.52162591228591
848.875,108.25297242541036
848.993,121.308550074261
849.111,135.13122729021111
849.229,147.73139368365042
849.347,147.17917912470907
849.465,145.80012473892788
849.582,140.52323485531127
849.7,134.12946185481155
849.818,132.465558984182
849.936,134.72546563736185
850.054,140.2026883078576
850.172,147.80804950649198
850.29,151.48354057525637
850.408,152.6932307782198
850.525,162.07694695520934
850.643,182.79572806726378
850.761,199.3577992226082
850.879,209.07917773725995
850.997,222.71224456360002
851.115,228.73751918214793
851.233,234.11517475307699
851.35,240.4659904971661
851.468,250.46355948800834
851.586,263.720002937725
851.704,274.1167061277012
851.822,297.3445781488462
851.94,332.79236358990465
852.057,380.6046511954652
852.175,433.2082807923678
852.293,502.744377921738
852.411,567.5809079515411
852.529,611.7680873319935
852.647,654.8643576215368
852.764,703.3441776946299
852.882,741.7348202785455
853.0,779.0077139447119
853.118,802.4606941909649
853.236,820.8807740043173
853.353,832.2212001380162
853.471,814.3018860119748
853.589,790.1704506738123
853.707,770.6693183659529
853.824,738.9638570537645
853.942,710.4445429277232
854.06,679.9113759878292
854.178,642.8483389180651
854.296,605.7480724110717
854.413,561.0530007092732
854.531,516.7994874490332
854.649,470.5728140156331
854.767,420.63272066881314
854.884,372.29868792805365
855.002,322.52655994919894
855.12,276.49469171060406
855.238,237.56671957590518
855.355,198.33398553644457
855.473,163.73761513334756
855.591,122.10875343683603
855.708,87.87096097200946
855.826,59.37792848934987
855.944,35.96733417791675
856.062,28.836425425646723
856.179,20.197878235491462
856.297,10.917573296788051
856.415,3.6181334544969506
856.532,-7.980721740037095
856.65,-23.652524226666664
856.768,-33.945638348906606
856.886,-42.76317971254512
857.003,-37.83628204626781
857.121,-41.77062681141682
857.239,-38.0685433545256
857.356,-36.57254535208339
857.474,-31.665929728479917
857.592,-31.99024290031896
857.709,-21.436847998155677
857.827,-4.728704362058209
857.945,8.953739381079517
858.062,20.094089989118014
858.18,37.1747870488153
858.298,40.54523303132784
858.415,55.17316445569887
858.533,58.0209349264514
858.651,71.8463036167687
858.768,87.5398655185491
858.886,94.9623064343034
859.003,100.61678198209236
859.121,102.49636575498957
859.239,93.68590623784362
859.356,84.39492724017828
859.474,62.376675515240215
859.592,52.98368565500493
859.709,37.71199422204618
859.827,23.79828696769105
859.944,12.38664019230027
860.062,3.9449278575175257
860.18,-1.5446572209845517
860.297,1.0661765639376135
860.415,4.962824580739002
860.532,9.59897368770655
860.65,11.438845808326288
860.768,15.456116996600366
860.885,25.33386487774655
861.003,31.121693540251016
861.12,40.31134812269884
861.238,52.4865015410429
861.356,56.37934264665614
861.473,58.11401774239678
861.591,55.61752400696862
861.708,48.77236892289087
861.826,43.44767782593607
861.943,28.67849345001101
862.061,22.826553557127863
862.178,10.545662901983292
862.296,6.257288597757791
862.414,10.481682455634528
862.531,15.840237121288778
862.649,19.301281734404398
862.766,26.426572660019275
862.884,17.936893204738038
863.001,22.098950799996228
863.119,19.360121515319683
863.236,25.906984900061126
863.354,39.52825675612854
863.471,40.100830015119314
863.589,38.26921864287519
863.706,42.29726840314055
863.824,44.94672686213276
863.941,58.367143613931184
864.059,66.3100002912168
864.176,74.32671148900232
864.294,87.42317021917711
864.411,80.79567864643877
864.529,69.86515677067001
864.646,63.232470392736644
864.764,62.84567146069064
864.881,64.64501971479177
864.999,59.11276623729104
865.116,65.1813785606561
865.233,82.21535884938893
865.351,102.3601616489443
865.468,118.5863497298848
865.586,140.41167200995946
865.703,161.02487307791284
865.821,170.77487068266277
865.938,164.01577737832173
866.056,163.54672736402404
866.173,156.7027855748346
866.29,156.11165763845906
866.408,152.4088413903952
866.525,160.90689094319708
866.643,165.99368508474356
866.76,167.59822814403887
866.878,167.65298765355075
866.995,174.62895928427486
867.112,172.62051533058346
867.23,166.21726618208697
867.347,162.49973131930483
867.465,157.94843022275649
867.582,162.65600358508252
867.699,165.01206179589332
867.817,169.28673472531892
867.934,178.54322583656275
868.051,191.21270396079376
868.169,191.68997429281706
868.286,199.69624895384484
868.404,203.8765495888987
868.521,229.0776294447317
868.638,241.69515951701493
868.756,258.74472422133283
868.873,282.4167997481617
868.99,318.2966674827827
869.108,341.7358425767112
869.225,365.94817784379995
869.342,395.9466602970359
869.46,440.422199027328
869.577,462.8795559394382
869.694,490.9022808169166
869.812,509.3804169498061
869.929,535.0169946411371
870.046,546.5488104277061
870.164,542.3317084653577
870.281,542.9154723038748
870.398,549.2317036748593
870.516,540.9323506302599
870.633,536.6381923908551
870.75,524.3890557964722
870.867,520.3581010202712
870.985,509.90117221809595
871.102,478.85896203063965
871.219,450.02108084751217
871.337,425.64813472931985
871.454,401.57388990982906
871.571,380.25981825051156
871.688,357.54141758686524
871.806,340.13557103577295
871.923,324.06305781801393
872.04,300.6961723058826
872.157,275.97517423963836
872.275,255.4403233595413
872.392,237.39118676515858
872.509,225.95850038722602
872.626,206.06434214782163
872.744,192.0489717872052
872.861,177.7400949330824
872.978,155.62169426943578
873.095,134.21498191747742
873.213,118.97104012828959
873.33,103.41108102308434
873.447,88.94809161484869
873.564,71.64008056159133
873.681,68.32860630487076
873.799,58.46302468192772
873.916,36.426505943623866
874.033,28.497006934919323
874.15,25.59709479549321
874.267,12.27020916180105
874.385,-1.18765660972339
874.502,-10.017550897191182
874.619,-11.909379747033267
874.736,-17.56867066346379
874.853,-19.883306649621268
874.97,-14.47763665621325
875.088,0.7395503678999348
875.205,7.6449700974767305
875.322,14.79314272808649
875.439,16.208034183504132
875.556,13.390252518561114
875.673,11.292514739797282
875.791,3.828359063468584
875.908,-6.448622259275704
876.025,-12.799571350138297
876.142,-17.45646562645579
876.259,-8.641826924320268
876.376,-8.413889969591226
876.493,-5.9102178158125405
876.61,-0.2204041615989354
876.728,-1.3730618076306946
876.845,-7.618264814571958
876.962,-18.483019064768385
877.079,-14.908119097664368
877.196,-10.585955572238946
877.313,-15.88601377845584
877.43,-15.817680726275889
877.547,-12.725745721225572
877.664,-5.489149495512905
877.781,-9.641178104090773
877.898,-12.881250185134993
878.016,-12.847676481417896
878.133,-18.6178810394925
878.25,-20.68829823463841
878.367,-25.521612542506816
878.484,-24.936332022510136
878.601,-28.61076897108461
878.718,-31.26124160978621
878.835,-28.61834318347967
878.952,-26.00742697148257
879.069,-16.912100773801406
879.186,-17.63121260482461
879.303,-17.17967115150732
879.42,-12.946110711984256
879.537,-20.13333143972808
879.654,-17.257499672013402
879.771,-20.164133849232247
879.888,-19.089684581883766
880.005,-18.782413285580134
880.122,-18.808108784670438
880.239,-19.166771079154707
880.356,-19.858400169032937
