wavelength_nm,intensity
792.446,148.99249054523435
792.565,135.9276420603858
792.684,123.4870359997797
792.803,111.67067236341606
792.922,100.47855115129474
793.041,83.38417885692257
793.16,72.54262041536418
793.279,62.25430872705253
793.398,56.02833470107847
793.518,57.513183185926934
793.637,62.606689679433366
793.756,76.72184119458484
793.875,93.61275028549396
793.994,112.42920050194422
794.113,118.43006630280999
794.232,117.69326976601347
794.351,112.06383253657617
794.47,102.52617019891383
794.589,84.89586716861078
794.708,70.77638664913025
794.827,58.87768535042896
794.946,51.401494874238544
795.066,50.602360675104336
795.185,53.14954682229055
795.304,57.11491478765855
795.423,60.35387582661956
795.542,52.53128916217251
795.661,44.75406330432649
795.78,42.37586512324891
795.899,37.9125431984162
796.018,33.78099975266012
796.137,27.89452506060627
796.256,25.076946607754916
796.375,34.689468917321236
796.494,36.604359751532044
796.613,38.221080316223194
796.732,41.54620185901278
796.851,29.59979219450367
796.97,17.64084540747056
797.089,11.676898039021253
797.208,15.23885046344458
797.327,32.97327716167857
797.446,51.75324923213283
797.565,75.94804788791166
797.684,94.25916421131018
797.803,93.23593385875608
797.922,89.17460826810678
798.041,72.18636455228537
798.16,56.644926282105516
798.279,40.07511967598084
798.398,29.37997605720434
798.517,22.753503760714533
798.636,26.63128018229609
798.755,26.41921473414185
798.874,27.176426698922885
798.993,25.103668161867077
799.112,31.07957203313927
799.231,37.878979672571305
799.35,38.17862902899245
799.469,38.473099352985514
799.588,44.22853145176309
799.707,37.88654963970164
799.826,28.29191747973299
799.945,19.11783663210622
800.064,20.683677662925685
800.183,26.671683086247988
800.302,24.711382948497544
800.421,34.99645529703103
800.54,42.25076991919303
800.659,46.11928085926429
800.778,53.26484807639177
800.897,56.025133908237855
801.016,58.240830995495145
801.135,56.3855324117568
801.254,51.66789616568087
801.373,56.125151694496765
801.492,60.19193103283651
801.611,70.43360214606798
801.729,83.35579273981885
801.848,93.42170627729263
801.967,85.21402674117317
802.086,74.93015672886337
802.205,62.31468498495174
802.324,48.03519004738304
802.443,21.393205723275464
802.562,11.296698544756305
802.681,7.732477704912244
802.8,2.9253416430954786
802.919,-15.167110690432363
803.038,-22.663604691275626
803.157,-26.231181240546512
803.276,-29.563150845937106
803.394,-40.990917977222864
803.513,-37.09220548244989
803.632,-37.1276206367954
803.751,-37.284217304045505
803.87,-42.030552773188724
803.989,-39.04047236551939
804.108,-36.255660930008546
804.227,-25.454451262505035
804.346,-15.815072741301389
804.465,-2.9154888416236786
804.583,6.162535928811062
804.702,12.846269761757222
804.821,17.750280968428395
804.94,15.715278070035117
805.059,6.260951857666501
805.178,-1.3079999090582168
805.297,-2.7324573060032815
805.416,-4.883000481329553
805.535,-8.234886271934924
805.653,-18.35763247965508
805.772,-16.51057245854345
805.891,-17.27883643686871
806.01,-17.965346919763732
806.129,-5.4607903757643825
806.248,14.697163726344666
806.367,29.77755054094341
806.485,36.98094989127626
806.604,46.44987764856036
806.723,51.644609247240254
806.842,62.7505329817968
806.961,64.75685207303248
807.08,66.74672094781782
807.198,68.9781482641616
807.317,60.182935797423795
807.436,49.052813633404156
807.555,37.679207559991745
807.674,27.54071386636189
807.793,32.85570288553195
807.912,37.595306007348654
808.03,48.607225202297144
808.149,67.42698843275663
808.268,78.34028731533834
808.387,95.99991180092249
808.506,96.99935524131057
808.624,99.60312768602768
808.743,94.72724645109115
808.862,95.80374616853567
808.981,90.60578701152123
809.1,81.32817417485296
809.219,67.63613232191415
809.337,61.20854386798976
809.456,49.831533223267094
809.575,43.3370786671286
809.694,39.63695418008166
809.812,43.42229654332522
809.931,44.12810750325215
810.05,49.57654381473938
810.169,56.56912503335572
810.288,62.35385055969475
810.406,66.2854245595147
810.525,70.7408080831441
810.644,73.9650227756048
810.763,77.29226777109574
810.882,81.89656904364277
811.0,89.20563222095171
811.119,95.0757343592996
811.238,94.20557675738768
811.357,97.20381742387406
811.475,101.634092722395
811.594,104.24532040186833
811.713,104.38901561380914
811.832,103.09461558765459
811.95,107.43831079959544
812.069,105.83395406348447
812.188,100.8486449464213
812.307,102.67372543974784
812.425,107.13084056510891
812.544,102.34120244371681
812.663,97.6147677855281
812.782,92.1801080191142
812.9,100.7212058284579
813.019,109.84585342135128
813.138,110.46487330861694
813.257,118.88822220021162
813.375,127.60161438184934
813.494,122.58427063275109
813.613,125.15913467586051
813.731,124.13659612156735
813.85,122.04739090060765
813.969,124.13480905627125
814.088,113.25685924656725
814.206,114.01527307322715
814.325,116.78234490854508
814.444,116.34855094299732
814.562,134.58228944498194
814.681,143.66797599891464
814.8,142.65149805068285
814.918,137.09129715872803
815.037,124.16659410227115
815.156,120.45660966053285
815.274,126.27476374693299
815.393,127.22884856926387
815.512,139.7171325257937
815.631,135.1958926727998
815.749,135.30322424837743
815.868,128.45038266378205
815.987,124.4217835034293
816.105,128.4027081526005
816.224,140.69185790999705
816.343,140.04767433406033
816.461,140.49266824730117
816.58,130.74112536400514
816.698,124.25971235083894
816.817,109.30816946754285
816.936,94.70987333749355
817.055,89.76265945852657
817.173,86.19639796051202
817.292,81.80849144085252
817.41,80.1885502891584
817.529,81.3616827305379
817.648,81.43957707667943
817.766,84.27677878212835
817.885,83.08454325814004
818.004,84.56676660861058
818.122,89.58232329241443
818.241,99.06627824461654
818.359,102.41170505829045
818.478,106.57185048668296
818.597,107.10255868563831
818.715,113.73800171260866
818.834,121.20799790953828
818.953,145.0277415851143
819.071,204.12844213883784
819.19,301.68347619408536
819.308,388.87011647812966
819.427,446.5009171035248
819.546,459.07631097070384
819.664,430.6534409368096
819.783,360.06850836487706
819.901,279.69381207760756
820.02,210.4307973328397
820.138,168.5760076962968
820.257,135.53333927187515
820.376,108.31456119453532
820.494,87.79457284594322
820.613,73.96232556525649
820.731,61.499945822623474
820.85,54.938553374616674
820.969,51.60640238448992
821.087,52.98389352525422
821.206,60.855954932058964
821.324,73.72416341431304
821.443,85.40828388433677
821.561,95.12339116963095
821.68,96.73489189782019
821.798,92.21932740969186
821.917,87.28731270511358
822.035,81.72412916936659
822.154,73.36267723535136
822.273,82.90338980350067
822.391,80.8542178687902
822.51,71.04477694304582
822.628,59.626452019108726
822.747,57.15942145779265
822.865,56.126942702169686
822.984,60.65223539445297
823.102,68.15475843227412
823.221,84.94414936262255
823.339,87.8358087974297
823.458,87.38490971692981
823.576,87.2231881256074
823.695,93.2986959715143
823.813,91.80104364426084
823.932,95.62373763735368
824.05,97.99361777763275
824.169,97.11414726856113
824.287,93.19744732226005
824.406,83.4798815750932
824.524,79.55971842532901
824.643,76.85513969114926
824.761,70.48476009116854
824.88,77.50225927906652
824.998,80.01066755787353
825.117,83.81171652932105
825.235,86.99804688604986
825.354,84.29433395273534
825.472,85.03304526184523
825.591,81.46093406013279
825.709,85.87150684110445
825.828,90.03446057445709
825.946,85.9982801086756
826.064,84.4902381710327
826.183,87.78392783512146
826.301,85.43259585418872
826.42,82.50550629749861
826.538,82.05114401353583
826.657,92.71626224905359
826.775,87.17650321396565
826.894,79.94013999275911
827.012,71.75464037305446
827.13,63.91748935642845
827.249,58.0164488986738
827.367,47.757338115360795
827.486,46.93374539968287
827.604,43.108650522939946
827.723,41.14366741953866
827.841,39.75145964104756
827.959,42.35866511145132
828.078,51.722028809011746
828.196,60.75351099137605
828.315,68.38608806137731
828.433,81.47939325678983
828.552,82.09762358010269
828.67,78.72793416660227
828.788,64.38557152390483
828.907,51.91901350706448
829.025,35.38864498448186
829.143,18.341247178668254
829.262,9.983632233766402
829.38,-2.7077128815904823
829.499,-11.501852025321487
829.617,-18.460401878883424
829.735,-18.196309644428137
829.854,-21.476396997354165
829.972,-22.89521900304094
830.091,-13.438564863651216
830.209,-2.3257930897915515
830.327,9.539592019152767
830.446,30.37691386799157
830.564,52.19210250359714
830.682,75.70997853825037
830.801,88.35775514200316
830.919,100.77224765478296
831.037,108.030030210853
831.156,106.66443614354657
831.274,101.2642100416081
831.392,83.43718177484129
831.511,63.09439968433841
831.629,48.943495630305875
831.747,37.099120216983806
831.866,31.58487938670347
831.984,32.12118337215223
832.102,30.72590642139825
832.221,24.10127111074818
832.339,18.3181929446559
832.457,24.505995936856227
832.576,18.81472412739224
832.694,25.344206715334863
832.812,25.628864398974095
832.93,31.206917104525353
833.049,25.769214362070958
833.167,13.661593924173513
833.285,5.280543621979605
833.404,7.052304981237418
833.522,-4.953169940349665
833.64,-0.3420445557080294
833.759,2.425047795385066
833.877,17.568478271996433
833.995,25.72773741280988
834.113,34.09111648407906
834.232,44.50529348541794
834.35,62.09130870586108
834.468,67.91548547456775
834.586,72.47198815694726
834.705,68.04298470616556
834.823,66.87300554617799
834.941,55.43668018398623
835.059,41.30723349503748
835.178,36.33013184162327
835.296,35.25029786433293
835.414,38.13721870716138
835.532,42.99360402616759
835.651,38.55971499380368
835.769,46.798424390890474
835.887,55.39742283408902
836.005,68.38800063930647
836.124,81.58377324971877
836.242,97.49296577355109
836.36,112.89566479088984
836.478,120.72953263939752
836.596,117.89413641864124
836.715,123.09077482991961
836.833,126.97659073037536
836.951,129.18015554857993
837.069,130.05211863518284
837.188,140.4851206828246
837.306,151.4601140724575
837.424,154.81779144477431
837.542,159.1927848344069
837.66,173.48033233659345
837.779,182.64147291237288
837.897,180.37490786044668
838.015,174.5897280899058
838.133,171.03311974793624
838.251,167.944043873499
838.369,160.27141821551197
838.487,165.80485316358528
838.606,177.31317988655022
838.724,184.1444503324588
838.842,180.81208441473083
838.96,173.11348473076907
839.078,169.36726599918794
839.196,164.82537627193568
839.315,162.5215817827785
839.433,168.72428080011463
839.551,167.32524821571923
839.669,168.97556628067457
839.787,167.17220469195013
839.905,163.52295565733823
840.023,166.74297069199014
840.142,161.3093060729624
840.26,148.69468907298213
840.378,140.62292921585902
840.496,132.6602602678269
840.614,135.88200690421036
840.732,135.68124271808284
840.85,137.65363870511538
840.968,148.40871867483182
841.087,146.0486471293969
841.205,138.55957125495763
841.323,141.87309278311588
841.441,146.36064028530015
841.559,151.30706224635895
841.677,152.45954481347832
841.795,162.64492781349816
841.913,169.56277834598552
842.031,175.211364809209
842.149,180.0331114455926
842.267,187.87217409929224
842.385,194.94327138502655
842.504,195.92865438504657
842.622,198.03005470108405
842.74,202.16781865348517
842.858,200.3938942941977
842.976,203.59745911239932
843.094,199.3637944933713
843.212,192.55177489598805
843.33,191.39776395661335
843.448,193.73899111247673
843.566,195.34861653673838
843.684,197.9339995367576
843.802,201.3843176017117
843.92,203.46407289610306
844.038,206.61568966235598
844.156,203.08332374462623
844.274,210.48775436369306
844.392,223.46794255851754
844.51,230.05419135940255
844.628,232.7322150520625
844.746,228.17474090922437
844.864,219.2917256408452
844.982,209.27277963653532
845.1,189.11876869716036
845.218,174.6037187967464
845.336,161.43672084438435
845.454,150.81171423401366
845.572,131.9624651994005
845.69,116.58334603491716
845.808,104.85098011718696
845.926,91.59653627737876
846.044,77.40875910423705
846.162,70.48505119516452
846.28,63.581955527958314
846.398,59.38173715947501
846.516,51.838405164792185
846.634,38.39651316791539
846.752,27.05163568151739
846.87,14.919853398017093
846.988,8.574669736501924
847.106,1.424116976423027
847.224,-6.2132370716442935
847.342,-5.222844416128889
847.46,-7.711991892886977
847.578,-18.227651693503034
847.696,-20.846787965705527
847.814,-13.856821061671695
847.932,-9.54439741880326
848.05,-7.5884519123590195
848.168,-0.15671747146458959
848.285,10.828224939030644
848.403,8.839474398012479
848.521,9.75038899120693
848.639,15.874272340978855
848.757,30.195002541216866
848.875,31.918242947242057
848.993,43.86082848626711
849.111,55.202058048198545
849.229,64.44554802286262
849.347,64.91505047720618
849.465,66.73637059629594
849.582,73.03373885664345
849.7,77.0815943729381
849.818,79.97861078020395
849.936,90.11199082383345
850.054,98.47221069430293
850.172,102.7302660626078
850.29,104.07403571662692
850.408,106.20308675592727
850.525,108.07499493808481
850.643,107.55209792543724
850.761,115.20149528508404
850.879,119.39894459278295
850.997,124.46479216888017
851.115,126.1791245934623
851.233,126.05795918254668
851.35,134.56363359847083
851.468,133.97147251655923
851.586,136.02606468140073
851.704,147.2893148549001
851.822,165.5906602664948
851.94,186.32230870839237
852.057,211.74659784293078
852.175,242.06872247530492
852.293,282.3943103111425
852.411,311.05582888291076
852.529,331.25154658887817
852.647,348.76934221692375
852.764,373.3200382778698
852.882,391.522682390764
853.0,402.53311871145064
853.118,418.5773212659035
853.236,435.5531255519581
853.353,444.66139737048013
853.471,435.72811074744374
853.589,424.07101460059766
853.707,414.843355683189
853.824,397.1455668956506
853.942,378.32396858430286
854.06,357.45821442879935
854.178,338.8011182819539
854.296,319.9544117454982
854.413,297.965713867051
854.531,280.35363936522697
854.649,255.29567741751555
854.767,230.12775875984727
854.884,207.8758574181963
855.002,169.38153183412118
855.12,136.3746521374921
855.238,116.4041360772267
855.355,90.14601470542446
855.473,71.03431996266978
855.591,51.46315198855082
855.708,38.04283757441359
855.826,22.608039499863086
855.944,4.904051676639924
856.062,-1.7495004236903313
856.179,2.230164342901009
856.297,-4.453907914481913
856.415,-4.749955592024868
856.532,-12.223030272941022
856.65,-23.7357938032192
856.768,-28.469150022534244
856.886,-38.884022855299534
857.003,-36.240775242037685
857.121,-31.89090575250912
857.239,-32.05789557815484
857.356,-34.6864726478084
857.474,-39.94975661907401
857.592,-44.590503953200326
857.709,-37.84703516415577
857.827,-37.40113923634529
857.945,-26.55891402450468
858.062,-12.23282033124712
858.18,-6.376816388985485
858.298,-5.005021194697009
858.415,-0.06410715713787773
858.533,-3.2738754381301396
858.651,-3.6695283910978227
858.768,-4.819435576780625
858.886,1.0484438226788262
859.003,5.860844825579675
859.121,7.573812255804485
859.239,7.713328534814253
859.356,7.700861300798252
859.474,1.5862786819224581
859.592,-7.812134021642474
859.709,-12.295444487794459
859.827,-14.19423027655129
859.944,-25.683672159496407
860.062,-26.241168404395886
860.18,-24.79156081278215
860.297,-17.122814103964515
860.415,-10.52513344422535
860.532,-6.4146275704878075
860.65,-4.450661471170262
860.768,-3.7560381096286553
860.885,-6.703684131509941
861.003,1.9086236226725433
861.12,13.038153959788842
861.238,26.31064381283568
861.356,29.095763636705925
861.473,38.40891309511492
861.591,37.97622427318979
861.708,33.27316476220233
861.826,28.144659405472133
861.943,22.312981413488714
862.061,15.788995006982244
862.178,7.746705256425791
862.296,-2.1364031247079645
862.414,9.674339909349435
862.531,14.284223555843782
862.649,14.757072656595822
862.766,17.31815345206049
862.884,7.883314046366493
863.001,-0.7766058650574275
863.119,-7.638733162874654
863.236,-10.335510749683113
863.354,7.449458692766342
863.471,14.017803667805104
863.589,23.715884345938484
863.706,32.64324246513656
863.824,31.378238591056377
863.941,28.79666445226508
864.059,25.624007367202296
864.176,26.01898097909069
864.294,29.41049610424924
864.411,29.44854492436371
864.529,28.619275425696134
864.646,24.85747141532068
864.764,23.227209686416785
864.881,22.58520374792198
864.999,30.539480852577398
865.116,37.155173540666055
865.233,45.87716607339014
865.351,60.80270166299626
865.468,73.46766970862464
865.586,82.87418318505965
865.703,89.52398670478483
865.821,90.77552182624177
865.938,91.12922144986321
866.056,79.25261804318177
866.173,77.72752978801569
866.29,78.97733330774156
866.408,87.36479916512978
866.525,90.02585809611102
866.643,84.9509862911616
866.76,79.66918807928576
866.878,75.20643748645736
866.995,67.59909814904026
867.112,66.39435621422061
867.23,66.65022034000702
867.347,73.73379009349914
867.465,77.2286152582466
867.582,77.11045341000712
867.699,80.86501883449489
867.817,81.75551499491336
867.934,81.18194189126254
868.051,88.46637744562054
868.169,89.23652728569297
868.286,99.65429617338461
868.404,111.59760618661744
868.521,122.23009368902792
868.638,134.91193184078907
868.756,141.30545830423858
868.873,146.30677697548043
868.99,159.18428612291274
869.108,159.89382990237974
869.225,175.23627411474712
869.342,188.4826144310105
869.46,218.19995041826942
869.577,238.26447255271447
869.694,258.0077825659474
869.812,261.96407959216737
869.929,270.5203766183872
870.046,275.6281887961223
870.164,271.7888148266712
870.281,265.66632397410314
870.398,271.6104997882016
870.516,263.9797838274082
870.633,261.18023669778347
870.75,257.36164194911106
870.867,258.89715975455124
870.985,264.5876559149698
871.102,258.55693995417624
871.219,253.6699469371057
871.337,240.46780240488377
871.454,232.52626393326778
871.571,219.9379722148986
871.688,206.76007010691916
871.806,187.4756744924462
871.923,168.23197151866583
872.04,154.51380967042667
872.157,144.8389378654777
872.275,131.21687991334255
872.392,130.8597570261423
872.509,121.89917093547876
872.626,114.9455112517416
872.744,109.6550550312079
872.861,93.09187153794693
872.978,82.47414259014069
873.095,70.74905433497523
873.213,62.71227776812152
873.33,54.92658345234999
873.447,45.81275060843974
873.564,45.55606062167219
873.681,42.129571005558105
873.799,33.46043698649736
873.916,29.0632314070945
874.033,22.955043211924483
874.15,23.95051687951043
874.267,8.159692585584935
874.385,0.1270489373079009
874.502,-3.003840487581595
874.619,-7.283711229871072
874.736,-6.0598768309801745
874.853,4.5303628237066125
874.97,14.704329642816864
875.088,22.55849767735385
875.205,20.265351447931884
875.322,19.61125103935059
875.439,13.130877838864373
875.556,9.76333264089478
875.673,9.311841952928456
875.791,9.826805934180513
875.908,14.626900540314871
876.025,9.307232004689691
876.142,4.779765815848407
876.259,-0.32893251352130726
876.376,-16.268722176489362
876.493,-15.379528351794466
876.61,-9.727369965664117
876.728,1.9665235521508206
876.845,19.964201029803263
876.962,19.22341805632628
877.079,23.339006520339538
877.196,21.858842573184475
877.313,11.841170990225988
877.43,7.910650136358026
877.547,-0.07028620236231298
877.664,-4.765002370636149
877.781,-6.550472290843514
877.898,-7.596337059101482
878.016,-3.65546875322754
878.133,2.4758231005141034
878.25,8.680590867764186
878.367,9.277153196446994
878.484,11.422994119667264
878.601,5.679072550166817
878.718,-0.536010098279661
878.835,-0.13121735909952292
878.952,-5.217391732070484
879.069,-1.0756175693563257
879.186,-3.2567833689944607
879.303,-2.4517591525643834
879.42,3.7624807235137356
879.537,9.106636734473044
879.654,13.078353220971845
879.771,13.38155553321813
879.888,6.711239298059764
880.005,2.318743132123399
880.122,-3.6572594118504025
880.239,-11.216768333861621
880.356,-20.359783633910276
