wavelength_nm,intensity
792.446,0.3735284603567071
792.565,0.3496088807098901
792.684,0.3270231261795779
792.803,0.30577119676577047
792.922,0.28585309246846763
793.041,0.25619938023006494
793.16,0.2352598166982424
793.279,0.22565206654937528
793.398,0.22499085409845843
793.518,0.23404788618475814
793.637,0.25200497817073386
793.756,0.2839115482160404
793.875,0.31620923331852063
793.994,0.3377459927111845
794.113,0.33765128323545623
794.232,0.3352984543152837
794.351,0.32572052011247926
794.47,0.29733398558173574
794.589,0.26997522425056064
794.708,0.2565931261060087
794.827,0.2453340987090295
794.946,0.23560708477591225
795.066,0.24216396209090668
795.185,0.2595948903228372
795.304,0.27067502204344107
795.423,0.2636305663163646
795.542,0.25287841000244904
795.661,0.2396076831858367
795.78,0.22174003903804862
795.899,0.20809661289565423
796.018,0.209012137827693
796.137,0.21086160342316224
796.256,0.21650207886652773
796.375,0.2235009337349202
796.494,0.21602239291075648
796.613,0.21294345801000147
796.732,0.2022070866087073
796.851,0.19269229205638821
796.97,0.1836677067349213
797.089,0.17689685615994843
797.208,0.17366445683093018
797.327,0.18518218140698162
797.446,0.18772267539943027
797.565,0.204993123686377
797.684,0.21137636696253648
797.803,0.21414574218799487
797.922,0.21071953920956993
798.041,0.20383644036706747
798.16,0.19734094882337833
798.279,0.19745407403049806
798.398,0.19871774397979686
798.517,0.20423106318260148
798.636,0.19972359368961345
798.755,0.1970226197521809
798.874,0.19981041070903094
798.993,0.2008934311027742
799.112,0.21057747499597773
799.231,0.22161025197871748
799.35,0.21876809076728276
799.469,0.21946087304344236
799.588,0.21765700830665707
799.707,0.21142547557958064
799.826,0.21108346913945125
799.945,0.2027806051006166
800.064,0.20163181423761775
800.183,0.2102486226496995
800.302,0.19817491837354012
800.421,0.20311822684279568
800.54,0.2087867643530436
800.659,0.22005105338756326
800.778,0.23995933596145697
800.897,0.24963987209630034
801.016,0.2518348518902592
801.135,0.26525027373923404
801.254,0.2575428516820606
801.373,0.2484919581728915
801.492,0.23990847346523256
801.611,0.24453871450083114
801.729,0.2553329639150703
801.848,0.2599623280110789
801.967,0.2588784306777456
802.086,0.2588643996443043
802.205,0.2450262929129131
802.324,0.21577772676512533
802.443,0.18405882179209487
802.562,0.1587100060013728
802.681,0.13754490196465152
802.8,0.12124483283699386
802.919,0.11122098861887951
803.038,0.10439557264346375
803.157,0.09750968742528382
803.276,0.08634609671218607
803.394,0.07988261874054069
803.513,0.07897102358212867
803.632,0.06867571096957484
803.751,0.0683778871000616
803.87,0.061097267030861255
803.989,0.06774181974304345
804.108,0.0730288376751936
804.227,0.08228136032896594
804.346,0.0944715972382549
804.465,0.10932934658876305
804.583,0.10507903848201776
804.702,0.1053083253549443
804.821,0.09435956964750822
804.94,0.09986478452804558
805.059,0.0927361504174054
805.178,0.09682645231970417
805.297,0.09997059475790807
805.416,0.1103816025454345
805.535,0.10885034231174479
805.653,0.10789001966385425
805.772,0.11126886755352257
805.891,0.11622723651092849
806.01,0.10774479992522269
806.129,0.1286070194295765
806.248,0.1527331347071966
806.367,0.18380567145335408
806.485,0.2072225151799465
806.604,0.23403461712356582
806.723,0.2511959988784044
806.842,0.26852312221576735
806.961,0.26809309579369167
807.08,0.2666019724676247
807.198,0.2598071185007811
807.317,0.2510295041207767
807.436,0.23747695367281102
807.555,0.2197642018095271
807.674,0.20973256381571426
807.793,0.21671179999018567
807.912,0.2208137973696194
808.03,0.23616605275013158
808.149,0.2671936033032435
808.268,0.29747487826520125
808.387,0.31982423463492626
808.506,0.3387701884555686
808.624,0.34777778590188546
808.743,0.34140298599868835
808.862,0.32604832469311834
808.981,0.30711750373922053
809.1,0.28702035313052243
809.219,0.26568759463940783
809.337,0.2541064043899326
809.456,0.25598448296893594
809.575,0.24738751814448762
809.694,0.24652779132327526
809.812,0.2441000965150079
809.931,0.23992378416413002
810.05,0.24925760313795506
810.169,0.26839736060800434
810.288,0.28686713623123594
810.406,0.306017416976366
810.525,0.309673052104452
810.644,0.31204747849143766
810.763,0.3091620212171504
810.882,0.3169576881499826
811.0,0.32680802454236146
811.119,0.3378580142939637
811.238,0.3501637815385539
811.357,0.35642480418875383
811.475,0.35400850959515673
811.594,0.35539550200371717
811.713,0.3589029343410801
811.832,0.37319321587801135
811.95,0.38480532390685207
812.069,0.39046388905867024
812.188,0.39936099211663734
812.307,0.39495842935151976
812.425,0.38725331209017805
812.544,0.37442072904566515
812.663,0.35853376540891946
812.782,0.35111716127271286
812.9,0.34919195284955873
813.019,0.3467449653703095
813.138,0.3504707556656015
813.257,0.3614356822769663
813.375,0.37245585608250587
813.494,0.3807224395752084
813.613,0.3871062337680189
813.731,0.3879556622078628
813.85,0.3817404653100584
813.969,0.38018444845432503
814.088,0.3812390807582466
814.206,0.3961782975918332
814.325,0.41702633338334866
814.444,0.4361020742633216
814.562,0.4519804933978796
814.681,0.46128975806318195
814.8,0.46672908831748133
814.918,0.46815905076595576
815.037,0.4659058669361131
815.156,0.4654311165949435
815.274,0.4633875213271289
815.393,0.461272893952518
815.512,0.45656077151210356
815.631,0.45649993665744926
815.749,0.4684593127639599
815.868,0.4755402739308807
815.987,0.479883429697586
816.105,0.49608280872211213
816.224,0.5045607346560236
816.343,0.5055794124367531
816.461,0.49329491663603764
816.58,0.4649466414243193
816.698,0.442964070696959
816.817,0.415619014376287
816.936,0.38617807243533453
817.055,0.3809959103746402
817.173,0.36468976961383814
817.292,0.34366744773761015
817.41,0.330795402411544
817.529,0.32243433433682617
817.648,0.31990316065693014
817.766,0.31718519884434804
817.885,0.31618603862831385
818.004,0.33323692599480337
818.122,0.33302438059106676
818.241,0.3390942304106309
818.359,0.34560079614605266
818.478,0.35175483216626413
818.597,0.3501483866873194
818.715,0.3253591271905927
818.834,0.3292479036347722
818.953,0.3409093721629505
819.071,0.44057832034522076
819.19,0.5610797201577742
819.308,0.7055161641956257
819.427,0.8209257668923897
819.546,0.8856888001091981
819.664,0.8436735983745829
819.783,0.7550289034355525
819.901,0.6098585910800042
820.02,0.5139120511888866
820.138,0.40421569300202786
820.257,0.3495061962244271
820.376,0.30892394263532014
820.494,0.295794405352362
820.613,0.28193931074582057
820.731,0.2850565049656001
820.85,0.2827375506665015
820.969,0.2974943640653528
821.087,0.3144768501438154
821.206,0.3344646081974666
821.324,0.3587993557991219
821.443,0.3841232912583826
821.561,0.40605610132282155
821.68,0.41476641624810234
821.798,0.40396482529420386
821.917,0.38954498159165385
822.035,0.3679316024317146
822.154,0.3463243618489057
822.273,0.33165634424236407
822.391,0.3215168426789722
822.51,0.320830749896594
822.628,0.3202481359858444
822.747,0.32501660745373545
822.865,0.3315108960348948
822.984,0.3423556819224186
823.102,0.34816771150249914
823.221,0.3470291178916417
823.339,0.3419013260855309
823.458,0.34667944388891303
823.576,0.3423978987872252
823.695,0.34765219478801834
823.813,0.3497547699020798
823.932,0.3457538454692157
824.05,0.3439487777699005
824.169,0.34081865434998115
824.287,0.3340483546916585
824.406,0.3393052815112213
824.524,0.33867443592301727
824.643,0.34298514492488863
824.761,0.33331919074013694
824.88,0.322443936860671
824.998,0.32854360262629645
825.117,0.33245442717509344
825.235,0.32698024423090244
825.354,0.3370656004334208
825.472,0.34740263829829066
825.591,0.34668936038861914
825.709,0.3478790413894114
825.828,0.34231277978826213
825.946,0.3424589026768647
826.064,0.3361428577262009
826.183,0.326561089742096
826.301,0.3288460682908927
826.42,0.32303689442329253
826.538,0.32395998578870194
826.657,0.3361412276115008
826.775,0.328729008173243
826.894,0.32642846960553545
827.012,0.3217444092320028
827.13,0.3177005147592252
827.249,0.3078468955021975
827.367,0.2891353094458171
827.486,0.28881490047249975
827.604,0.27674262405258065
827.723,0.26772648210407446
827.841,0.26556625387077837
827.959,0.27081090353607973
828.078,0.27362906135564213
828.196,0.292764434127739
828.315,0.3067214786204401
828.433,0.3251351301099049
828.552,0.3176632787795214
828.67,0.3189099608536684
828.788,0.29678707979189367
828.907,0.26777671518966595
829.025,0.22720680753699335
829.143,0.19686696712346402
829.262,0.1745052537888731
829.38,0.15087902230663403
829.499,0.13582799562356102
829.617,0.13127492708093969
829.735,0.12635454547636601
829.854,0.12395972803257335
829.972,0.13152643583127463
830.091,0.1434258379121494
830.209,0.16566647460594738
830.327,0.18315733138058743
830.446,0.21042533423218718
830.564,0.23364740674388945
830.682,0.26731401935235893
830.801,0.2811610175141559
830.919,0.2912871609952624
831.037,0.2829975730847837
831.156,0.2632367383965275
831.274,0.24090120907180995
831.392,0.22255049324439538
831.511,0.21552457528321578
831.629,0.2206960100803963
831.747,0.21628600291641192
831.866,0.22274127727346282
831.984,0.2284502760393596
832.102,0.23416541338238722
832.221,0.2343716162205608
832.339,0.2374252419077097
832.457,0.24165747440392016
832.576,0.23435444353227783
832.694,0.2312835231223398
832.812,0.22621230350743948
832.93,0.22377190266276573
833.049,0.2175545230036368
833.167,0.20697173806511204
833.285,0.20550737098419214
833.404,0.20701056747608776
833.522,0.2091898843919316
833.64,0.21456301529483035
833.759,0.21611444346418024
833.877,0.22665801019016413
833.995,0.23689903275757201
834.113,0.25562795361732055
834.232,0.27247671599594725
834.35,0.2862184814069364
834.468,0.29926483372299545
834.586,0.3111553796593349
834.705,0.32071852792361377
834.823,0.32030122671324346
834.941,0.307894407427361
835.059,0.2959295656948766
835.178,0.27552067264955526
835.296,0.25773996755568995
835.414,0.24993094254057333
835.532,0.2522505697908285
835.651,0.25532787284690894
835.769,0.27017458214139267
835.887,0.2781925628479586
836.005,0.29627342535064066
836.124,0.3147129561456634
836.242,0.32760496709386855
836.36,0.33804768576699284
836.478,0.3425482617777653
836.596,0.3482090288662079
836.715,0.36568304917255745
836.833,0.3698837118435246
836.951,0.39040246640661624
837.069,0.4035663286277447
837.188,0.4139546770462843
837.306,0.42078089684993714
837.424,0.428874294361249
837.542,0.4425678280947831
837.66,0.45372437559422873
837.779,0.45922904743563797
837.897,0.4594817280720851
838.015,0.4557303025402476
838.133,0.45081254735361
838.251,0.4501944269771126
838.369,0.45682070455422935
838.487,0.4612791874646798
838.606,0.4643608752187118
838.724,0.46351562748838593
838.842,0.4575972842294732
838.96,0.4499364620050804
839.078,0.446439348954366
839.196,0.44989285909458976
839.315,0.45037354402445773
839.433,0.448859191386904
839.551,0.4490987179295012
839.669,0.43788979812366285
839.787,0.4327352692477058
839.905,0.42725364190465054
840.023,0.42462294516893073
840.142,0.4254736986058103
840.26,0.4140472977816331
840.378,0.4141824685130111
840.496,0.41430711596930814
840.614,0.40629113321093435
840.732,0.39767356989376873
840.85,0.4027660801278432
840.968,0.40336076720442027
841.087,0.4090092571386024
841.205,0.4015089148591927
841.323,0.41440180274698857
841.441,0.4224311836682259
841.559,0.4345935808774891
841.677,0.4410392088990501
841.795,0.45966114312880924
841.913,0.4771658563208124
842.031,0.4906419090360088
842.149,0.4931211392916587
842.267,0.5082493461945574
842.385,0.509887591383325
842.504,0.5155378351966877
842.622,0.5145180764879367
842.74,0.5265708562484409
842.858,0.5357306123012862
842.976,0.5349511350402159
843.094,0.5293046430542268
843.212,0.5251428097942353
843.33,0.5085424653886133
843.448,0.49248231577047774
843.566,0.4867463759463009
843.684,0.4899368042095023
843.802,0.4874516794457351
843.92,0.4851989436733378
844.038,0.49756040616954844
844.156,0.505730974364788
844.274,0.5119950758912033
844.392,0.5271355599483625
844.51,0.5445034705643134
844.628,0.5516576657746549
844.746,0.5418728958630986
844.864,0.5351653069731173
844.982,0.5298695908231572
845.1,0.506052033591213
845.218,0.4733703709827856
845.336,0.4468991945512728
845.454,0.41612575249084954
845.572,0.3847217908651619
845.69,0.3486796957475651
845.808,0.3261415933775408
845.926,0.3139399779557363
846.044,0.2982718203343636
846.162,0.28126194514017555
846.28,0.26760987163638655
846.398,0.2540183069643128
846.516,0.24093361337530272
846.634,0.21928735856838552
846.752,0.1955013711616842
846.87,0.1766674616201392
846.988,0.1635143667431031
847.106,0.14582450784336942
847.224,0.13597034119645146
847.342,0.13273961908750623
847.46,0.13165129093609096
847.578,0.12431065373824426
847.696,0.11594972096309106
847.814,0.1128330047198521
847.932,0.11448647899953465
848.05,0.10906119768386831
848.168,0.11595833677461058
848.285,0.125732929178991
848.403,0.13239530624654733
848.521,0.14207642717570726
848.639,0.14715374011580662
848.757,0.16158149394141605
848.875,0.17311987223462055
848.993,0.18681658371778867
849.111,0.20052908011357817
849.229,0.20277646830872076
849.347,0.20937610768940818
849.465,0.2247521584875713
849.582,0.23516736202467742
849.7,0.24442939000083452
849.818,0.25078874793384187
849.936,0.2602349332239151
850.054,0.2601821088742908
850.172,0.2523332915688953
850.29,0.2579481277899287
850.408,0.26748025315982926
850.525,0.28535908954806816
850.643,0.2903960225792416
850.761,0.2970710787646761
850.879,0.30931470134709005
850.997,0.3113735475303674
851.115,0.31191879598117445
851.233,0.31192998822162543
851.35,0.3219935389831117
851.468,0.33209655202615135
851.586,0.3365564588070551
851.704,0.36385011863434435
851.822,0.3989844953364985
851.94,0.43202474029755245
852.057,0.4763354128702568
852.175,0.5255192387450105
852.293,0.5892471077211665
852.411,0.638287992442738
852.529,0.6826030497133928
852.647,0.7264884065849104
852.764,0.7603889292838284
852.882,0.782472691006479
853.0,0.8122235355651592
853.118,0.8326104191810133
853.236,0.852457984948971
853.353,0.8573212839413087
853.471,0.8491935998462681
853.589,0.8270611904977219
853.707,0.8022988393185393
853.824,0.7701158253281382
853.942,0.7438872311543494
854.06,0.7119444986116286
854.178,0.6798921486201482
854.296,0.6508319165100054
854.413,0.6124015848799063
854.531,0.5662059531796888
854.649,0.5238197470587593
854.767,0.4769585182096746
854.884,0.42677368831420404
855.002,0.38119191432703964
855.12,0.3362660911532517
855.238,0.3013031786623114
855.355,0.26625344915195354
855.473,0.22740920203533888
855.591,0.1970870538550776
855.708,0.16752959699736233
855.826,0.14001462724498784
855.944,0.12019027092036583
856.062,0.10342973684129854
856.179,0.09621868079867046
856.297,0.0917645728827223
856.415,0.07920925106086774
856.532,0.07485055190786878
856.65,0.06610578373439628
856.768,0.06665965739594568
856.886,0.05988821007031611
857.003,0.046840221903081014
857.121,0.03514742730529122
857.239,0.029113031494053813
857.356,0.023643574800832994
857.474,0.027478711590034698
857.592,0.034581385043725675
857.709,0.05780581950848802
857.827,0.06877017936514576
857.945,0.07066191755645826
858.062,0.08144548129483678
858.18,0.09607153938266891
858.298,0.10143547452580526
858.415,0.10200873023552043
858.533,0.10223742461832111
858.651,0.10880460638834602
858.768,0.10816177843013422
858.886,0.10688827802010456
859.003,0.11644344108228746
859.121,0.1260378956942277
859.239,0.12298560056065733
859.356,0.11488933170388949
859.474,0.10573567567123615
859.592,0.09315050276581259
859.709,0.08100312380370173
859.827,0.0696920168440321
859.944,0.0642964201127621
860.062,0.06280962189792089
860.18,0.05287076891772893
860.297,0.05836186073427057
860.415,0.061212330037027474
860.532,0.0654463175516107
860.65,0.08013785328987198
860.768,0.0911254902266567
860.885,0.10231605148239159
861.003,0.11258405332567606
861.12,0.11768097331170092
861.238,0.12196229674004196
861.356,0.11679172285834075
861.473,0.11593657529723671
861.591,0.11699768478969527
861.708,0.1150618969428575
861.826,0.11281780284017866
861.943,0.10970322573854058
862.061,0.10733365199295612
862.178,0.08823320310360486
862.296,0.08276821134848673
862.414,0.07346322861906299
862.531,0.07758816302718083
862.649,0.07900244775351042
862.766,0.08295983154479433
862.884,0.09074266110100611
863.001,0.1007756072518097
863.119,0.09846637513808643
863.236,0.10017890458563143
863.354,0.09194625306952436
863.471,0.09266997190117826
863.589,0.0870676207278257
863.706,0.09268289073756801
863.824,0.11227434961951516
863.941,0.13311353451071659
864.059,0.1462600841860207
864.176,0.15241100991727335
864.294,0.15522605744787876
864.411,0.1480843328727668
864.529,0.13299139703444018
864.646,0.12549363498575716
864.764,0.12497368125530489
864.881,0.12209125226918938
864.999,0.1211635216293521
865.116,0.13119665892586835
865.233,0.14340899110372213
865.351,0.15301768963864176
865.468,0.16657349326849102
865.586,0.19152512687137113
865.703,0.21559368230704523
865.821,0.22565838942880373
865.938,0.22880228930568652
866.056,0.23477519630015298
866.173,0.2258217145319446
866.29,0.21411551939048928
866.408,0.21100947080890425
866.525,0.2141823096922598
866.643,0.22564485852059912
866.76,0.2223756991752603
866.878,0.224395362497667
866.995,0.22872400776074264
867.112,0.22114732114895358
867.23,0.21736602908301117
867.347,0.21341022603864374
867.465,0.21335855804929216
867.582,0.22173427952056582
867.699,0.2252657866962621
867.817,0.2365468090294553
867.934,0.245114580270955
868.051,0.2570936465178486
868.169,0.26416272799990953
868.286,0.2644495586923266
868.404,0.26748384112045015
868.521,0.26770314746443125
868.638,0.2773478005225435
868.756,0.2876387580585412
868.873,0.3074497717843985
868.99,0.33864609220820563
869.108,0.3677702043806642
869.225,0.4022664484819251
869.342,0.43445107982374687
869.46,0.4690762340447488
869.577,0.4990404543444994
869.694,0.5178000175018557
869.812,0.542334227859859
869.929,0.5626301891790277
870.046,0.5820132563849278
870.164,0.593542452622112
870.281,0.5923323474342697
870.398,0.5873426326132019
870.516,0.5729231863800522
870.633,0.5516381800962016
870.75,0.5333593227271297
870.867,0.5170421792210567
870.985,0.5086823855553289
871.102,0.4965394744980155
871.219,0.4742617725981999
871.337,0.45579788097562246
871.454,0.4416941329949003
871.571,0.4222831466150412
871.688,0.3979314825846968
871.806,0.3675868133957765
871.923,0.3441629514517319
872.04,0.3230349173545052
872.157,0.2952535425873757
872.275,0.2809147747965134
872.392,0.2665488218783588
872.509,0.2675065113571831
872.626,0.25849953627397965
872.744,0.24778603674848915
872.861,0.23735403483141276
872.978,0.22301263622177975
873.095,0.2023309643759008
873.213,0.18255780194534027
873.33,0.15906553871326962
873.447,0.1479047999968405
873.564,0.12751690291363715
873.681,0.12247281783798467
873.799,0.11202159867441927
873.916,0.10049796161908534
874.033,0.09284408909397261
874.15,0.0791176400479964
874.267,0.07170695178266522
874.385,0.07188071216732736
874.502,0.06882519326900394
874.619,0.07159001563629361
874.736,0.07355355050567415
874.853,0.07669950640804696
874.97,0.07397648168174842
875.088,0.07387635829909
875.205,0.08705754468346108
875.322,0.09558057246693219
875.439,0.09908175405221327
875.556,0.09270647050611473
875.673,0.0965129008497127
875.791,0.09306614765734395
875.908,0.08130854227953829
876.025,0.07504270572511143
876.142,0.0748410692436384
876.259,0.06807934939910976
876.376,0.05770339913954518
876.493,0.04901059794342655
876.61,0.05976642766708368
876.728,0.06465364864804295
876.845,0.06655340404365157
876.962,0.0632953797090274
877.079,0.06439209244693703
877.196,0.06371997962940472
877.313,0.052053710559517165
877.43,0.05055568133817635
877.547,0.058794171658048754
877.664,0.06539435797335758
877.781,0.06981904548565257
877.898,0.0668253606198137
878.016,0.06847343692084781
878.133,0.07144317398068024
878.25,0.06679309185665955
878.367,0.0682093156437006
