wavelength_nm,intensity
792.446,0.378732250668117
792.565,0.35781363881189254
792.684,0.3377419398485863
792.803,0.31851715377819817
792.922,0.3001392806007279
793.041,0.27022959559534804
793.16,0.2518215340712112
793.279,0.2428661132228705
793.398,0.24150285666297971
793.518,0.2557487511149849
793.637,0.2738180474819544
793.756,0.29762176372710203
793.875,0.3193191256482498
793.994,0.3399346246481217
794.113,0.3495334260973729
794.232,0.3377613368858108
794.351,0.31530038737249955
794.47,0.2874000715049947
794.589,0.27158329023547995
794.708,0.2547488475059265
794.827,0.24018604371334545
794.946,0.23123472083061553
795.066,0.23728605004936948
795.185,0.24149329474322098
795.304,0.25002525914510276
795.423,0.24697637273059753
795.542,0.24437553055621658
795.661,0.2374417727425835
795.78,0.22531179453433658
795.899,0.20789380203063695
796.018,0.19949106032063393
796.137,0.1909664714509926
796.256,0.19012256156710883
796.375,0.18463128399696066
796.494,0.17491609531292243
796.613,0.18490911506036317
796.732,0.19463549349282527
796.851,0.18986140848928726
796.97,0.18552367745672504
797.089,0.17688038184218463
797.208,0.1721127018908613
797.327,0.17300498676836437
797.446,0.18269537351945558
797.565,0.20714285875674904
797.684,0.22195153506344872
797.803,0.2297707953051435
797.922,0.2359148926359147
798.041,0.21496161520953783
798.16,0.20266660752796747
798.279,0.1906326122068362
798.398,0.19350243765611158
798.517,0.19025933195982664
798.636,0.17781320181763283
798.755,0.18363522189269094
798.874,0.18337129401925575
798.993,0.17202644184098204
799.112,0.18262954665168235
799.231,0.19176287195234323
799.35,0.19461929607999787
799.469,0.1957136199067701
799.588,0.18815052470083715
799.707,0.1914166171974415
799.826,0.19055256857768765
799.945,0.18536889478553237
800.064,0.19792747574474018
800.183,0.1988082261106007
800.302,0.1927893602625055
800.421,0.20559245046524707
800.54,0.21159155176536731
800.659,0.21858645870893462
800.778,0.2301068856754659
800.897,0.23497494846697908
801.016,0.23661381435710782
801.135,0.22778237811140195
801.254,0.21608373192660726
801.373,0.21915825176908607
801.492,0.2225961245623978
801.611,0.22953365998741299
801.729,0.23921546638319
801.848,0.2586777507036344
801.967,0.2591336705207515
802.086,0.25415568793782295
802.205,0.24166886636719914
802.324,0.23556394324127478
802.443,0.21422549238095412
802.562,0.19278106878336138
802.681,0.1701970384599103
802.8,0.15600032647788087
802.919,0.1260346572701419
803.038,0.110541509089117
803.157,0.09775960429713709
803.276,0.09852071842991167
803.394,0.08628366685458408
803.513,0.0794458588588192
803.632,0.07378661623238152
803.751,0.06644008371583326
803.87,0.05446354785749499
803.989,0.05928580230720436
804.108,0.06381211619725483
804.227,0.07712112206361085
804.346,0.07520485812747879
804.465,0.08184191945313135
804.583,0.09288897243453996
804.702,0.0952242611199928
804.821,0.0958357763170794
804.94,0.09502329361409723
805.059,0.08200564271733857
805.178,0.09112295094809131
805.297,0.08161856264824735
805.416,0.08369831139609027
805.535,0.08221187339933303
805.653,0.06971748915517673
805.772,0.07102004238165621
805.891,0.07946111660941832
806.01,0.08134062786075219
806.129,0.12410176033281994
806.248,0.14746161575902691
806.367,0.1703538520589577
806.485,0.18993048838554177
806.604,0.21331116057486676
806.723,0.2331975857720043
806.842,0.258859339116451
806.961,0.26451067915882975
807.08,0.2625657569471477
807.198,0.2521298499896926
807.317,0.22789609282035667
807.436,0.22021675073049635
807.555,0.2132108409893596
807.674,0.21131509436500823
807.793,0.21561410575579218
807.912,0.22142526645699612
808.03,0.22086955458740742
808.149,0.23530420092247
808.268,0.2539652157909014
808.387,0.2877846054540306
808.506,0.3133315685373016
808.624,0.33984974947035473
808.743,0.34472520802373885
808.862,0.3512794664890525
808.981,0.3332336373921684
809.1,0.31163077414502827
809.219,0.28274855798440324
809.337,0.2567854593272722
809.456,0.23718376928678628
809.575,0.2211800930526655
809.694,0.20582799335067686
809.812,0.2093306334244125
809.931,0.22022190549459025
810.05,0.23808108509182493
810.169,0.26140968279106636
810.288,0.2733131523671348
810.406,0.2927678065755446
810.525,0.2960068108616457
810.644,0.283441327775065
810.763,0.28220262163699594
810.882,0.2914792952564815
811.0,0.297607365298263
811.119,0.3102867163633274
811.238,0.3084756610282696
811.357,0.3180159704353889
811.475,0.30533711030023947
811.594,0.2997572925916958
811.713,0.29961001129466075
811.832,0.3043748247765506
811.95,0.3234114864926479
812.069,0.32816127410063106
812.188,0.34101273972135226
812.307,0.3471421757516701
812.425,0.3481382268600747
812.544,0.33910792210715823
812.663,0.33078383342785245
812.782,0.3298278869169342
812.9,0.34649455852139815
813.019,0.3432792669703404
813.138,0.36634832684755847
813.257,0.37240673147395476
813.375,0.38613925970101926
813.494,0.3778793724829515
813.613,0.38824883693200885
813.731,0.3829067012288978
813.85,0.3804399713960974
813.969,0.37146703816173393
814.088,0.3788231318982468
814.206,0.3747827832708628
814.325,0.38992501166807436
814.444,0.39246053185763824
814.562,0.40394327696432086
814.681,0.39369177845935743
814.8,0.3895284908636458
814.918,0.38009385350378755
815.037,0.3684531446567316
815.156,0.36585391393584543
815.274,0.37233850698577486
815.393,0.3737716744260088
815.512,0.37649023707952634
815.631,0.36181703368040885
815.749,0.3660313537819029
815.868,0.37040686053075855
815.987,0.36694569104304764
816.105,0.3752128991337159
816.224,0.38676257767871014
816.343,0.40100461963006145
816.461,0.3880716856270362
816.58,0.35980279831950746
816.698,0.35450847221518855
816.817,0.35117980361556167
816.936,0.322599704006278
817.055,0.3050015415148962
817.173,0.28861184600719236
817.292,0.2806961440222294
817.41,0.2721769309060136
817.529,0.26935875458250036
817.648,0.27257508274376147
817.766,0.2786306903540779
817.885,0.2716358765669066
818.004,0.2797844117005263
818.122,0.28554246689445784
818.241,0.29550230282809276
818.359,0.3109288248866604
818.478,0.3210238936854546
818.597,0.32830366010956435
818.715,0.32899535913770234
818.834,0.3494735132695369
818.953,0.3917860003028819
819.071,0.4970997892394178
819.19,0.6344670437856714
819.308,0.7821053692340683
819.427,0.8955767679972062
819.546,0.9370891182171501
819.664,0.8769813448022477
819.783,0.76525340230686
819.901,0.6215265271114081
820.02,0.5085272463872961
820.138,0.4137782555113013
820.257,0.35966537462720183
820.376,0.3122385132278037
820.494,0.26712365040607877
820.613,0.23437573324862743
820.731,0.23003269605474433
820.85,0.21964001489786092
820.969,0.22589100217855365
821.087,0.22912883629225608
821.206,0.2508726626990414
821.324,0.2571411212084806
821.443,0.27935169099013324
821.561,0.29436318822223756
821.68,0.3127684942186222
821.798,0.3065665258467025
821.917,0.29275691471263127
822.035,0.27075440606704204
822.154,0.25507609404275866
822.273,0.24822928117311877
822.391,0.2497787177217773
822.51,0.24843094890289946
822.628,0.24926059315301471
822.747,0.2575247439565206
822.865,0.26068792668776464
822.984,0.26621613077852657
823.102,0.2649598274520967
823.221,0.2705003561418027
823.339,0.26777236363869295
823.458,0.27306135785902896
823.576,0.266635634386355
823.695,0.28261622088551336
823.813,0.2952474034920343
823.932,0.3011360666800976
824.05,0.2903596697171913
824.169,0.28298868217693807
824.287,0.2702288698583589
824.406,0.25984177962848765
824.524,0.2524789880194561
824.643,0.2495215094421358
824.761,0.25461243532461175
824.88,0.26091499303937543
824.998,0.26190248935680915
825.117,0.26412620530019615
825.235,0.26225605359829973
825.354,0.2668593215730795
825.472,0.2656038647128174
825.591,0.25383302809500086
825.709,0.2622774558357256
825.828,0.26393018857066175
825.946,0.2585166626038793
826.064,0.2586490500971737
826.183,0.2600763947235106
826.301,0.2596815106415362
826.42,0.2538486261939052
826.538,0.24795563825064781
826.657,0.2644566663823903
826.775,0.2660001200343693
826.894,0.26275988182989773
827.012,0.2708286627229576
827.13,0.26388659558331184
827.249,0.24813663435731767
827.367,0.22158282485718628
827.486,0.2091981224116668
827.604,0.20307341974599036
827.723,0.19792232103465782
827.841,0.19966501386772556
827.959,0.208774137008132
828.078,0.21174964593250034
828.196,0.22940514162430536
828.315,0.23649720302447874
828.433,0.24997252885788837
828.552,0.2692082283516784
828.67,0.2738434116274619
828.788,0.2636076315245953
828.907,0.24268897459999147
829.025,0.2020641470803405
829.143,0.16790685095720695
829.262,0.11990568947231936
829.38,0.08693133446237553
829.499,0.07194914474331761
829.617,0.05509976095348742
829.735,0.05645003045716924
829.854,0.07545609053640881
829.972,0.0856268784300714
830.091,0.10789928813080879
830.209,0.12062933696110612
830.327,0.13284103117812163
830.446,0.1398801392767334
830.564,0.1588765974347882
830.682,0.1756820996208207
830.801,0.19904730809640636
830.919,0.21387614327921214
831.037,0.22195143708100196
831.156,0.2090649604726328
831.274,0.1821047892266594
831.392,0.1538095835378147
831.511,0.14740141442578458
831.629,0.14826983650414022
831.747,0.14183924745041582
831.866,0.14044015475358085
831.984,0.14371937804812268
832.102,0.14765555968115396
832.221,0.14302142477770274
832.339,0.13361871340681158
832.457,0.14337417420589285
832.576,0.14595659846671669
832.694,0.13380618804361571
832.812,0.1281037781440646
832.93,0.12714522004236206
833.049,0.12472938137545246
833.167,0.11869969404973692
833.285,0.11625299356523719
833.404,0.12097390009526085
833.522,0.13297247290301842
833.64,0.14530572542070216
833.759,0.14710027147049332
833.877,0.1467415881738777
833.995,0.16009229068748418
834.113,0.17812511629462982
834.232,0.1979024728348949
834.35,0.22109043845738977
834.468,0.24309212680516967
834.586,0.257804950876627
834.705,0.24496423407976392
834.823,0.2255935383449375
834.941,0.2079745478787966
835.059,0.19277288726644395
835.178,0.17708061334648845
835.296,0.1690467955294222
835.414,0.16692369984148353
835.532,0.18092806947024032
835.651,0.19484591896758513
835.769,0.198886137700105
835.887,0.21188782837156622
836.005,0.24343482943259903
836.124,0.26017627171240115
836.242,0.28174511748183706
836.36,0.3036008208440357
836.478,0.31149065740430704
836.596,0.32442645562012606
836.715,0.31733549589550514
836.833,0.3276281062922973
836.951,0.3455279068514462
837.069,0.3565458571613668
837.188,0.37837697272990045
837.306,0.38917090091975903
837.424,0.4034508318559517
837.542,0.4118460841749002
837.66,0.41464897942351486
837.779,0.4258199204495759
837.897,0.4240727078815614
838.015,0.41943369758079263
838.133,0.4199895416861007
838.251,0.4158600451096198
838.369,0.4257100752204361
838.487,0.4227143491296358
838.606,0.4138093566279262
838.724,0.40700662048460584
838.842,0.3911787980775596
838.96,0.3718922926949191
839.078,0.37517738189708427
839.196,0.374027106319725
839.315,0.37983381036112707
839.433,0.3947776117262861
839.551,0.4001444674587852
839.669,0.406600016055245
839.787,0.41320582339077094
839.905,0.410395871740999
840.023,0.4007546114178665
840.142,0.38322203531668864
840.26,0.36333859294339454
840.378,0.36292185321038517
840.496,0.3507057044950745
840.614,0.3464409750534354
840.732,0.33312657155440495
840.85,0.32998195271307684
840.968,0.32377751954894807
841.087,0.33413842937259064
841.205,0.34362374054403916
841.323,0.3642241004407699
841.441,0.3698081483506473
841.559,0.3846303767360168
841.677,0.3860618194935208
841.795,0.3958572100628598
841.913,0.40246301739838597
842.031,0.41633861572763825
842.149,0.42006082126163174
842.267,0.42963082372237144
842.385,0.4415134447761926
842.504,0.46408492613176294
842.622,0.48709625579623606
842.74,0.49481534378938896
842.858,0.5055245806899573
842.976,0.49848006457559474
843.094,0.48047622242916416
843.212,0.46155443598589324
843.33,0.44609816246090184
843.448,0.4424426639067488
843.566,0.435945909195709
843.684,0.44053961541628583
843.802,0.4577263699591404
843.92,0.45659521822129767
844.038,0.46430064632907997
844.156,0.4608295562274167
844.274,0.4798822511117648
844.392,0.4953273702699892
844.51,0.5150985751247809
844.628,0.5298333802437838
844.746,0.54704199060323
844.864,0.5404619105914352
844.982,0.5207000411979311
845.1,0.4826544152371537
845.218,0.46162490848134596
845.336,0.41734354484932457
845.454,0.38943218784428835
845.572,0.354129466865736
845.69,0.3354194086456942
845.808,0.308279835164043
845.926,0.2871656371189435
846.044,0.2689623606461158
846.162,0.259449503245458
846.28,0.22852085057662647
846.398,0.2172759773825505
846.516,0.20401703741326865
846.634,0.18570759186098817
846.752,0.16987535039842944
846.87,0.14986654923573844
846.988,0.1437484742919627
847.106,0.13432292376867852
847.224,0.12557945218744934
847.342,0.12410720427686768
847.46,0.11251561923668275
847.578,0.1018291751345631
847.696,0.09612440023681504
847.814,0.08664241665553699
847.932,0.08960859336059293
848.05,0.08249661901886168
848.168,0.09848470628406092
848.285,0.10544556669570396
848.403,0.11534116992081482
848.521,0.13227118304234425
848.639,0.15070655338691447
848.757,0.16866241449475428
848.875,0.18135146811897482
848.993,0.18695389942232074
849.111,0.20890735348615588
849.229,0.2134757391072279
849.347,0.2149971608631894
849.465,0.22135077417272161
849.582,0.22708149670939798
849.7,0.23184373337336633
849.818,0.24668559945159751
849.936,0.2601232293138288
850.054,0.27397338771422347
850.172,0.2854235042551712
850.29,0.3003432316800091
850.408,0.30786476518864586
850.525,0.32062486473654206
850.643,0.3218956347000276
850.761,0.33941347232217134
850.879,0.34133718480632513
850.997,0.3404428629387206
851.115,0.34134208402015065
851.233,0.3439774765320629
851.35,0.34676449377157836
851.468,0.3565426403432793
851.586,0.3687099008661314
851.704,0.3978809866971208
851.822,0.42578853313141757
851.94,0.466754929979097
852.057,0.5076776151935934
852.175,0.5475020456243703
852.293,0.5993225873867716
852.411,0.6452379607038746
852.529,0.692576694076495
852.647,0.7241095740878968
852.764,0.7620953839479201
852.882,0.8066229129114675
853.0,0.8413016645234992
853.118,0.8677366753149485
853.236,0.8933179432707948
853.353,0.9014172899305662
853.471,0.8916699963548932
853.589,0.8604835126915584
853.707,0.8253862038468935
853.824,0.7966639635042432
853.942,0.7658121470324648
854.06,0.7461669005179452
854.178,0.7171728284564387
854.296,0.6774666742880551
854.413,0.647006896526386
854.531,0.5945943169871567
854.649,0.5463698583022614
854.767,0.5089517349332942
854.884,0.46234187469909094
855.002,0.4104866184829431
855.12,0.36214468478386863
855.238,0.31465239595478633
855.355,0.2766810472283483
855.473,0.23555289899298498
855.591,0.20985327912880217
855.708,0.18014166206760424
855.826,0.14665293519029282
855.944,0.11736687146541944
856.062,0.1095967143045169
856.179,0.09614220470386636
856.297,0.08845522886211701
856.415,0.08382389241242781
856.532,0.07669665812925652
856.65,0.06884919718503668
856.768,0.06189384038082962
856.886,0.04452566799071961
857.003,0.043155697823222705
857.121,0.035235684882417996
857.239,0.0356349889146437
857.356,0.0397943494533269
857.474,0.042374031034609516
857.592,0.049505668300225854
857.709,0.058126652023552765
857.827,0.062184392649412744
857.945,0.08099667149236825
858.062,0.09343774925128912
858.18,0.11021971816986101
858.298,0.12605220317177934
858.415,0.12802303520854957
858.533,0.11076177355327083
858.651,0.1086755915455311
858.768,0.09847792483874054
858.886,0.11086186519549819
859.003,0.12375830077559025
859.121,0.12428894546023889
859.239,0.13334962945441722
859.356,0.122412160380545
859.474,0.10506252155863063
859.592,0.09616437826303295
859.709,0.07817718681232369
859.827,0.07921163433014855
859.944,0.07881255071192507
860.062,0.07253321607337315
860.18,0.07849951599246868
860.297,0.08208479593589885
860.415,0.09103639034367109
860.532,0.09872165944183031
860.65,0.1015734167288454
860.768,0.10491225221897738
860.885,0.11289044868421838
861.003,0.11960074270164303
861.12,0.13719837284575498
861.238,0.15810529989716485
861.356,0.15239679799094927
861.473,0.15463707138766938
861.591,0.15715800821842402
861.708,0.15379895827841367
861.826,0.149742596446725
861.943,0.1377023354645342
862.061,0.14094568554590114
862.178,0.1373018786267438
862.296,0.1165912246573567
862.414,0.10722557207034472
862.531,0.11146088463498915
862.649,0.1050753571449882
862.766,0.1001093056279567
862.884,0.09240929340844661
863.001,0.10177993756278786
863.119,0.11301892651917485
863.236,0.12521403651766855
863.354,0.13253512362290565
863.471,0.14447898491390376
863.589,0.1434608133256391
863.706,0.13849534607140745
863.824,0.14195679851655896
863.941,0.14449488641895303
864.059,0.15494145202715232
864.176,0.1699006027247318
864.294,0.17308505468981927
864.411,0.17594328759693778
864.529,0.1766782693993979
864.646,0.17031619052391744
864.764,0.17499943579765476
864.881,0.1768223898160073
864.999,0.1806383211097919
865.116,0.1843176535498805
865.233,0.1931208089921243
865.351,0.20145816234326358
865.468,0.225007164042042
865.586,0.24326705812569277
865.703,0.2736487344863685
865.821,0.28645833430752965
865.938,0.2808270888796669
866.056,0.27345694004424775
866.173,0.2646292814398873
866.29,0.2568875837224137
866.408,0.2577229280285413
866.525,0.25679204915637355
866.643,0.2586013432893568
866.76,0.2562949139604651
866.878,0.25321260314257743
866.995,0.25137470788186433
867.112,0.2580086735274067
867.23,0.25926474230291896
867.347,0.2642322019333647
867.465,0.259749752865089
867.582,0.26475409418603346
867.699,0.26763978728614557
867.817,0.2711511031361875
867.934,0.28066593860618944
868.051,0.2998478749522907
868.169,0.3080131137477713
868.286,0.3148970552955793
868.404,0.3153813405477077
868.521,0.31468541170389874
868.638,0.31948895270990985
868.756,0.31638342008689485
868.873,0.3319086051195418
868.99,0.36269324809862163
869.108,0.39664698448345925
869.225,0.4328423080574558
869.342,0.4680991975065573
869.46,0.5079321485544906
869.577,0.5508262799137617
869.694,0.572477923534694
869.812,0.5883855853576898
869.929,0.5961492235233017
870.046,0.6066421067857691
870.164,0.6149917540337391
870.281,0.6082854756272835
870.398,0.6066511126585783
870.516,0.6166686319101824
870.633,0.614888108168022
870.75,0.5918678286645969
870.867,0.5725848937983069
870.985,0.5761440192471411
871.102,0.563232054917254
871.219,0.5426664568147536
871.337,0.5244858746977933
871.454,0.5192480339685739
871.571,0.48222500597272194
871.688,0.43384651526908224
871.806,0.40129573374325295
871.923,0.3931701932468903
872.04,0.3840269912904884
872.157,0.3686944952730994
872.275,0.3613762540020825
872.392,0.35148585631596097
872.509,0.3356698003564862
872.626,0.3072525001435119
872.744,0.29846855317233173
872.861,0.29023646557008553
872.978,0.2755678399816611
873.095,0.2624701012107465
873.213,0.255644981801574
873.33,0.2414694780749943
873.447,0.22946179815657772
873.564,0.20754933535662992
873.681,0.20022972809707612
873.799,0.17811239150786423
873.916,0.16373238136765353
874.033,0.15346760442876284
874.15,0.15153790190619837
874.267,0.13062982914935573
874.385,0.11408397201627365
874.502,0.10110367151965825
874.619,0.09374976426280729
874.736,0.10206527127962031
874.853,0.11456927122898174
874.97,0.11945709135875596
875.088,0.13765853411514484
875.205,0.14416687298818617
875.322,0.1476124228161113
875.439,0.14082640563184123
875.556,0.11713834414072166
875.673,0.11059650618935733
875.791,0.0905760690039765
875.908,0.082220870846195
876.025,0.08125377512455842
876.142,0.09800883301286512
876.259,0.11670533183125055
876.376,0.12444608353664399
876.493,0.12292446552414585
876.61,0.12758332912139386
876.728,0.12050638481030707
876.845,0.12723672296051222
876.962,0.12324375211167335
877.079,0.12690078024435555
877.196,0.12863379370206676
877.313,0.1149572673220895
877.43,0.10888761827532062
877.547,0.0997679448181688
877.664,0.10388499936770346
877.781,0.11364364441359034
877.898,0.11820257334960732
878.016,0.11265978929062642
878.133,0.11093658161669953
878.25,0.0963943799135126
878.367,0.09649886701512068
