wavelength_nm,intensity
792.446,286.3604666583414
792.565,267.585921203796
792.684,249.3031506410254
792.803,231.51215497002977
792.922,214.2129341908087
793.041,181.44237142024602
793.16,165.33587791375254
793.279,162.9670467449214
793.398,168.00167877955346
793.518,180.1930207708954
793.637,201.4847956626703
793.756,222.38696016483476
793.875,245.3808995587741
793.994,255.9003800782546
794.113,256.9566571345316
794.232,255.05622423409872
794.351,233.9358779137525
794.47,210.03025020812478
794.589,187.599081376956
794.708,173.71769609557074
794.827,166.48133245920712
794.946,167.84323722111185
795.066,175.4925878704625
795.185,187.80600778388236
795.304,183.71509869297327
795.423,179.7168302947049
795.542,170.96964414751875
795.661,162.73241471028933
795.78,157.4865272644019
795.899,151.04410302197766
796.018,146.66315064102534
796.137,143.9367437146185
796.256,137.29085626873106
796.375,134.35405973193463
796.494,124.83717661505148
796.613,125.07873505660984
796.732,123.59908137695611
796.851,113.99388657176124
796.97,101.34367012154473
797.089,90.63457921245381
797.208,90.75925453712912
797.327,96.16185193972656
797.446,99.79475237262702
797.565,117.11596449383914
797.684,132.61726319513787
797.803,134.51769609557084
797.922,133.80514198301674
798.041,127.83284761072235
798.16,120.48739306526775
798.279,114.13154890942353
798.398,106.93154890942355
798.517,106.01812899600365
798.636,111.71683029470498
798.755,111.44929782717259
798.874,126.04670042457518
798.993,131.45189522976995
799.112,134.4224580003326
799.231,133.37050994838452
799.35,133.98263116050578
799.469,132.08306406093868
799.588,131.2744060522807
799.707,126.14886492673969
799.826,130.9047090825839
799.945,128.74280432067914
800.064,131.5445359224107
800.183,131.27700345487816
800.302,137.08999046786516
800.421,149.7410727189474
800.54,152.95579133366599
800.659,167.47527185314652
800.778,180.31856189643662
800.897,190.70470908258378
801.016,197.99042336829802
801.135,202.64756622544087
801.254,203.5047090825837
801.373,200.7393411172157
801.492,186.89345367132825
801.611,191.15405973193435
801.729,188.67613765401236
801.848,199.03544501331967
801.967,199.6112025890772
802.086,200.28652726440185
802.205,185.40773938561392
802.324,164.04929782717238
802.443,136.9237567016313
802.562,110.07997648216241
802.681,88.0942431045329
802.8,76.29604400829464
802.919,52.83047350711712
803.038,41.26438940552411
803.157,30.086895864292977
803.276,19.859687525384253
803.394,12.440786285836863
803.513,9.608653450379338
803.632,5.925443864340483
803.751,4.271681157018013
803.87,-1.5906047403326427
803.989,5.138043748433721
804.108,9.19849264209023
804.227,9.151311855138024
804.346,11.623215767337713
804.465,29.072289986358534
804.583,25.37838651188797
804.702,39.39925064775746
804.821,38.269716813572
804.94,40.572255579550145
805.059,32.67358972496406
805.178,33.41595998320725
805.297,29.17706625124574
805.416,39.15897200984714
805.535,33.40095364728077
805.653,45.23018105872603
805.772,42.507578685058746
805.891,46.00423361267184
806.01,40.82093276713108
806.129,62.65397233207562
806.248,78.09442669391836
806.367,101.42399578985035
806.485,128.6559017082803
806.604,159.07016884096086
806.723,185.6632751046468
806.842,203.47023418218583
806.961,207.7395309220627
807.08,213.3594770125892
807.198,206.1724966961894
807.317,187.02620902048233
807.436,174.33793000278405
807.555,154.71804925348408
807.674,147.20639361240944
807.793,158.3146513912481
807.912,168.75624250342003
808.03,183.17272539048378
808.149,206.65241174075078
808.268,226.43079938971914
808.387,240.25247708197747
808.506,250.54861364869467
808.624,256.6811138517757
808.743,267.4794149206575
808.862,262.3106164224397
808.981,252.09679627920008
809.1,242.76349561648016
809.219,229.06222958579494
809.337,210.8137774079236
809.456,198.8744161391433
809.575,187.61730595261423
809.694,174.81387541976483
809.812,168.3351202115908
809.931,172.04510959216123
810.05,189.12393014156282
810.169,207.9256944139081
810.288,227.61923357802812
810.406,247.9274913568667
810.525,251.05566255561877
810.644,248.8054787760158
810.763,248.23061967173754
810.882,257.75792506962364
811.0,264.9146676969468
811.119,279.3181635710232
811.238,290.5268542502945
811.357,297.18576137978226
811.475,295.0801663447679
811.594,305.34513408031654
811.713,312.2923528981163
811.832,328.001476477821
811.95,336.7980459449715
812.069,339.3244855419922
812.188,341.0613147494025
812.307,325.40939936806814
812.425,319.9860554153049
812.544,310.24236514219535
812.663,297.501272271683
812.782,295.1480581890494
812.9,296.716056227628
813.019,297.8918464739989
813.138,304.56547221820557
813.257,310.1092278325424
813.375,323.9915115854076
813.494,321.6737953382726
813.613,322.65391458897324
813.731,324.0227784284183
813.85,328.9899106661317
813.969,328.79513814194024
814.088,333.3042617216448
814.206,351.4194459074099
814.325,362.7796517381963
814.444,379.15717358629865
814.562,399.88534478505005
814.681,406.8031263734116
814.8,414.97285601372107
814.918,398.1339276453726
815.037,397.7850425670673
815.156,391.48377653638096
815.274,386.667358990543
815.393,394.79639599015957
815.512,392.6440477083909
815.631,392.3332578681804
815.749,401.9705199760219
815.868,403.46319333927477
815.987,418.6900658367267
816.105,426.29875651599684
816.224,437.96978485760474
816.343,442.45812921652896
816.461,423.8235298525095
816.58,404.8962897958494
816.698,377.4417770119166
816.817,353.8773075180272
816.936,328.60028391158363
817.055,303.0496672315471
817.173,286.4003492528095
817.292,274.6661827892234
817.41,262.6913236849448
817.529,261.0749061391076
817.648,257.52342365820556
817.766,259.7762701816324
817.885,258.1840950600378
818.004,263.3139978605211
818.122,270.32442014152383
818.241,283.28029696798103
818.359,292.720156478421
818.478,304.0751675040125
818.597,305.26410663679326
818.715,280.8816602657488
818.834,281.64237569085
818.953,287.7417831084378
819.071,386.66258845845846
819.19,504.584606799677
819.308,649.2633163929054
819.427,770.4097311294154
819.546,834.527552443844
819.664,798.6897584812525
819.783,709.6249498411077
819.901,568.0037222842375
820.02,483.1851807037704
820.138,384.0651790791411
820.257,329.41369364556067
820.376,285.90702205227126
820.494,266.7406579693833
820.613,244.92164302095006
820.731,234.3433207132095
820.85,225.2385914790621
820.969,234.24122155227414
821.087,256.8577044393391
821.206,278.86120031341693
821.324,302.81794294074143
821.443,329.352174745555
821.561,343.21454507850706
821.68,349.55137428591786
821.798,339.84924245436775
821.917,325.9323920080991
822.035,315.90904805533705
822.154,300.4753144921853
822.273,295.878810366263
822.391,288.17841013644426
822.51,279.6580964867121
822.628,264.52133262052973
822.747,259.0867332565119
822.865,247.4166360569962
822.984,257.9145042254459
823.102,270.1188659003889
823.221,284.99422324632764
823.339,289.34577106845677
823.458,304.3657171589841
823.576,300.18739485124297
823.695,308.0540941885235
823.813,307.46018746519775
823.932,313.8299171055082
824.05,306.03168137785303
824.169,287.47760149435373
824.287,259.66724455457756
824.406,251.69758025549396
824.524,243.15388998238456
824.643,258.8318447309201
824.761,264.52018908984525
824.88,271.0925161327528
824.998,277.9496916605085
825.117,283.0769970583939
825.235,286.09261414459075
825.354,295.10909703165316
825.472,299.9489565420922
825.591,302.9394654031805
825.709,291.5351690694637
825.828,287.5256779305519
825.946,278.8322041076572
826.064,278.0123233583555
826.183,283.56906598567707
826.301,286.73100341819315
826.42,283.39943435720255
826.538,282.8289042572509
826.657,282.4116209105458
826.775,284.14412111362424
826.894,278.96666460674567
827.012,276.6073899180491
827.13,270.6247386059757
827.249,259.1018275536424
827.367,242.73389485628738
827.486,232.2326288255992
827.604,217.4724883360367
827.723,214.11581104993746
827.841,205.30545411015862
827.959,203.36955604483873
828.078,211.87175321761396
828.196,226.23801965445813
828.315,241.78783587485205
828.433,265.4883014458955
828.552,272.2727497009219
828.67,278.36802046677104
828.788,257.64597521530425
828.907,226.30488234478986
829.025,186.4632536088041
829.143,147.3849367209154
829.262,107.4763110727378
829.38,81.20619561408425
829.499,52.79305620310129
829.617,42.545017480408994
829.735,39.540777295351674
829.854,37.015804537124254
829.972,40.323337300348136
830.091,61.712169649760455
830.209,81.7355493034589
830.327,110.73720219373195
830.446,134.0192040926185
830.564,162.9890521281467
830.682,190.5673442799332
830.801,201.16750930267148
830.919,204.24559640333186
831.037,199.74359692390567
831.156,183.21302601590799
831.274,165.9066975321525
831.392,140.52677597480402
831.511,138.2161184867196
831.629,145.19637008954413
831.747,148.80172991747688
831.866,161.4772196155394
831.984,178.13106429195682
832.102,189.76845875192384
832.221,184.5158099218476
832.339,174.9912996199099
832.457,179.42349927468211
832.576,168.83059070434612
832.694,155.9199332162612
832.812,151.94693806583848
832.93,154.59472213619506
833.049,143.2026793667248
833.167,130.66691365353154
833.285,126.15019555938576
833.404,141.21269824446057
833.522,141.34619660053096
833.64,149.11259538950162
833.759,153.35431885379685
833.877,164.8705011925508
833.995,172.30270084732203
834.113,187.01541998261268
834.232,201.36190535166975
834.35,227.65471106704717
834.468,242.46180249671045
834.586,254.1649978224777
834.705,253.78334466339635
834.823,250.7462802489037
834.941,238.6399517651468
835.059,219.5769133246797
835.178,201.2653900357277
835.296,189.9884987814075
835.414,189.11766813314773
835.532,194.38796302601327
835.651,201.931850992472
835.769,209.74240562559746
835.887,219.26118536694807
836.005,238.14706467539833
836.124,262.6199569708618
836.242,276.13007870355483
836.36,288.4505900466375
836.478,302.3607117793307
836.596,309.60156944275997
836.715,313.2943751581374
836.833,320.95168303801705
836.951,337.0929736018793
837.069,352.78664511812246
837.188,355.6803166343655
837.306,361.6389232155435
837.424,376.6693912685829
837.542,394.11890694067006
837.66,410.4844399287745
837.779,422.61880408571017
837.897,427.0345535240312
838.015,421.7325540446034
838.133,415.8331519677731
838.251,407.1372130944061
838.369,406.19625257601757
838.487,414.77996738230445
838.606,419.58446140937053
838.724,420.882461929943
838.842,413.6765663466193
838.96,406.0048698974948
839.078,406.22754574274256
839.196,401.18701812478696
839.315,392.4962740566151
839.433,393.63063821355155
839.551,390.8048292103149
839.669,391.2500158780739
839.787,393.98264843327877
839.905,390.09017276337534
840.023,391.0254027211774
840.142,384.3329270512735
840.26,366.88114402206224
840.378,356.9306596941497
840.496,339.7819069679689
840.614,336.8496044582381
840.732,334.30171753292296
840.85,327.49928515306226
840.968,334.97477485112347
841.087,338.01649831541846
841.205,347.4218581433498
841.323,356.1873911314547
841.441,365.5130972797328
841.559,382.36088135008885
841.677,393.9930810048605
841.795,403.8625100968615
841.913,421.3726318295551
842.031,433.14509122458617
842.149,441.5824856845521
842.267,451.89001001464806
842.385,457.39493694214644
842.504,466.20375997354097
842.622,478.59180378415635
842.74,480.9140467289709
842.858,491.6146446521405
842.976,481.9862382463057
843.094,463.5716846543238
843.212,462.16838647359737
843.33,455.86205798984065
843.448,450.2873312376858
843.566,443.75589452882116
843.684,442.5396093351079
843.802,443.4531942712648
843.92,428.48972293036525
844.038,429.3349095981238
844.156,448.1212218070077
844.274,470.46424397260154
844.392,484.69384622477554
844.51,502.9061324596336
844.628,514.8881156641887
844.746,518.1575447561897
844.864,510.72913835035547
844.982,494.4444548882443
845.1,472.5060917724537
845.218,436.3789840679186
845.336,384.26053437204143
845.454,351.452041386121
845.572,312.4123795690316
845.69,277.8238000030244
845.808,253.0914974932944
845.926,236.66655429092356
846.044,217.52732537426687
846.162,207.45389732341084
846.28,184.69302338510866
846.398,180.2516299662867
846.516,170.97820191543013
846.634,140.95699871160625
846.752,122.5615850037002
846.87,106.8272527950899
846.988,86.5601123527372
847.106,86.33449480459038
847.224,76.31823015934992
847.342,74.28792327881986
847.46,75.15460034514672
847.578,53.37937555859646
847.696,45.67694567914357
847.814,37.14547538013306
847.932,28.94689124267927
848.05,31.461925483023258
848.168,50.54778725083948
848.285,69.84659621213692
848.403,86.63684220750665
848.521,88.56037320164924
848.639,99.53476308489758
848.757,102.91982454465463
848.875,105.21725406607302
848.993,122.78567925848716
849.111,140.2614637582609
849.229,144.78659890738555
849.347,148.90221024698656
849.465,151.86976963853556
849.582,162.38884418159967
849.7,169.0992607160057
849.818,170.85989370062808
849.936,184.08026694499057
850.054,195.3508566395696
850.172,205.64309135579367
850.29,220.88684122353288
850.408,234.70288546356647
850.525,242.94750113217123
850.643,250.70120770986682
850.761,243.2618406944888
850.879,247.91511437175126
850.997,259.6558339364596
851.115,262.86062276523705
851.233,270.66281419141694
851.35,283.2459579985492
851.468,284.31395029052953
851.586,300.1273971279644
851.704,312.1858656104209
851.822,337.245199893743
851.94,364.5417636142946
852.057,403.08334897986776
852.175,453.33402525453164
852.293,513.2712816157756
852.411,570.2613518298333
852.529,631.425448017917
852.647,684.2622714787279
852.764,729.8116490520931
852.882,761.8562647206966
853.0,794.0281531165726
853.118,811.4615133739205
853.236,824.6308043671993
853.353,827.6849438453264
853.471,817.0802088645793
853.589,798.0261232344814
853.707,771.8231198554657
853.824,740.8149216712555
853.942,709.4681953485172
854.06,672.0452785495881
854.178,635.4907600190576
854.296,592.7137306660161
854.413,550.6535844298573
854.531,507.01508321534374
854.649,468.1237681480162
854.767,425.11903316726887
854.884,374.24070511292837
855.002,324.7857536819647
855.12,267.8104559306547
855.238,218.95030969449607
855.355,182.8615920297657
855.473,151.40231159447237
855.591,126.14736016350795
855.708,96.42324686972907
855.826,68.06260261360818
855.944,49.7004761936802
856.062,24.245204200668617
856.179,10.133462947463103
856.297,0.670809980923009
856.415,-4.495362902456762
856.532,-15.788460120886263
856.65,-27.345990132187588
856.768,-26.83352047077414
856.886,-32.63938631008128
857.003,-37.07782057977494
857.121,-37.7666917372426
857.239,-39.019152784532295
857.356,-38.13682753686933
857.474,-43.7380015817995
857.592,-39.6782632086701
857.709,-25.3928615202365
857.827,-20.135968866749966
857.945,-7.963371807234042
858.062,6.662239011193039
858.18,18.51466396827601
858.298,23.483887979207374
858.415,28.307722440342467
858.533,30.375577089564036
858.651,35.364893031851814
858.768,38.55972876363709
858.886,52.165819906677584
859.003,59.87580348510078
859.121,53.65824192788513
859.239,43.785431678497346
859.356,36.65348350313441
859.474,23.69895490390805
859.592,10.806621565139091
859.709,0.14380924691472607
859.827,-0.3469575401819973
859.944,-12.46657062489136
860.062,-22.433673705489046
860.18,-19.57681969667268
860.297,-9.749563954222362
860.415,-1.174328880200433
860.532,6.601189441214061
860.65,17.103470949958343
860.768,24.939151370125533
860.885,34.07098977433461
861.003,44.20332957466937
861.12,52.174745157205074
861.238,54.55374163917722
861.356,54.50869630189585
861.473,53.996984297948025
861.591,55.29566190438986
861.708,51.15364687013901
861.826,53.520722744978855
861.943,43.89078705404433
862.061,28.547763462201672
862.178,17.77363195444775
862.296,8.451740727218237
862.414,2.8841612614091168
862.531,0.5711644878252544
862.649,-1.2784492320332062
862.766,5.9346273065639945
862.884,7.583261400140252
863.001,11.380274083767308
863.119,16.300259175966552
863.236,23.64988236676053
863.354,29.67496747574954
863.471,27.626829737857683
863.589,28.948616914842553
863.706,39.434177683868796
863.824,46.10163201451168
863.941,51.409899825930566
864.059,56.902333794821885
864.176,74.37860540976357
864.294,75.02803830454798
864.411,69.16231968418111
864.529,63.1459517131652
864.646,57.92785214041789
864.764,55.31667897459718
864.881,51.405938709209465
864.999,55.19909454771796
865.116,73.0338088277849
865.233,85.7914668307955
865.351,99.06427634895756
865.468,114.24720248770146
865.586,125.7945329405587
865.703,140.6210743277764
865.821,145.73016812520444
865.938,142.65287008482915
866.056,139.5634765042015
866.173,167.79096364759775
866.29,197.3780397885397
866.408,224.81363896097824
866.525,237.46361604073465
866.643,234.81497058067256
866.76,214.9435911308086
866.878,180.56545502950362
866.995,149.02352743965557
867.112,152.08983241003352
867.23,153.020570630891
867.347,156.30636716203946
867.465,155.2640251650494
867.582,154.5333714797477
867.699,149.64167883340716
867.817,148.00193423901464
867.934,155.17171345414604
868.051,180.14062686841152
868.169,197.70347967661633
868.286,210.4741246926132
868.404,218.3867610506013
868.521,224.87775238694445
868.638,224.29168744623132
868.756,228.14544934534518
868.873,237.86068310593095
868.99,272.89453158513135
869.108,297.89288222883386
869.225,320.6479428292462
869.342,356.0012718279268
869.46,397.77538004738665
869.577,440.93476965212767
869.694,471.36342332613276
869.812,488.1063627144235
869.929,508.58523283864474
870.046,515.368864867628
870.164,507.16548390959815
870.281,511.1958691853347
870.398,521.7015791363958
870.516,524.6479817281498
870.633,520.3675444930642
870.75,508.06459643546765
870.867,495.92528474150754
870.985,485.4058864674609
871.102,456.5557522626782
871.219,429.4969600492375
871.337,402.99834099596984
871.454,377.6815401245205
871.571,347.178592066924
871.688,328.9293236630073
871.806,312.93460071363603
871.923,304.26022408461097
872.04,279.2724275421659
872.157,251.12618944127922
872.275,224.23103359147456
872.392,209.54540155119363
872.509,190.76712881827177
872.626,184.06504656154044
872.744,177.37595131779608
872.861,174.8686742558698
872.978,157.128496761043
873.095,140.80390368180076
873.213,124.92866125190895
873.33,120.45515042374862
873.447,102.70109670127893
873.564,79.35052179146575
873.681,60.999990364405036
873.799,42.29592748968867
873.916,14.280190719723956
874.033,0.8939411348454418
874.15,4.185623411340236
874.267,1.594364687905054
874.385,1.1293158071088487
874.502,-1.2635978337729359
874.619,-3.3945349927024697
874.736,-1.9112379919496068
874.853,-2.3547250621371703
874.97,1.108586589627429
875.088,11.99985550724312
875.205,12.811625731206144
875.322,19.06485986935215
875.439,11.921867032194843
875.556,3.1724353584123106
875.673,2.2733292683096886
875.791,-0.3073729868656603
875.908,-1.7034532565863305
876.025,1.309878343247305
876.142,9.651373951849806
876.259,10.320986182746548
876.376,5.679344022451231
876.493,-9.343563460626765
876.61,-18.286086637082015
876.728,-21.620866966501538
876.845,-24.65904522058839
876.962,-24.974233124667435
877.079,-22.10154291829284
877.196,-14.083110315844406
877.313,-18.77088655188484
877.43,-26.373456484486436
877.547,-10.501359619177592
877.664,24.681983086039395
877.781,38.043983662187415
877.898,44.5720062637389
878.016,40.44927186329144
878.133,28.77061357081394
878.25,-0.7851701108390579
878.367,-20.77168826210975
878.484,-15.119766198370764
878.601,-3.3208504368976683
878.718,-10.42952177410991
878.835,-16.90638828135807
878.952,-21.964288303999297
879.069,-24.662894592460372
879.186,-35.51399187430343
879.303,-34.918805729093336
879.42,-32.00740896848364
879.537,-26.71032642493003
879.654,-25.686536132760097
879.771,-27.47096452279187
879.888,-28.55018738997352
880.005,-29.404825973960307
880.122,-30.958771488023437
880.239,-33.21202393216295
880.356,-36.164583306378844
