wavelength_nm,intensity
792.446,0.3473493844696609
792.565,0.3289113637432869
792.684,0.3109563030794724
792.803,0.2934842024782176
792.922,0.2764950619395219
793.041,0.24431189579888474
793.16,0.22849410346825663
793.279,0.22616773246268773
793.398,0.231112121131322
793.518,0.2430849391610792
793.637,0.26399506919359045
793.756,0.28452257241597523
793.875,0.30710435646783896
793.994,0.31743528034125357
794.113,0.31847262413759636
794.232,0.3166062555859795
794.351,0.29586448134992394
794.47,0.2723873505623643
794.589,0.2503582496806832
794.708,0.23672568157677737
794.827,0.22961902629002845
794.946,0.23095651956187052
795.066,0.23846875926735345
795.185,0.25056146703095034
795.304,0.24654388552462242
795.423,0.2426172841709246
795.542,0.23402688714268532
795.661,0.2259373060948115
795.78,0.22078544866690872
795.899,0.21445850179101755
796.018,0.21015607588159557
796.137,0.20747853849251066
796.256,0.20095177539355347
796.375,0.19806761952700025
796.494,0.18872132197831107
796.613,0.18895855060058941
796.732,0.18750541900390905
796.851,0.1780723927115912
796.97,0.16564892532768488
797.089,0.15513178974000874
797.208,0.1552542303192492
797.327,0.16055998875300287
797.446,0.16412777118698213
797.565,0.1811385088834046
797.684,0.1963619542356363
797.803,0.1982283227872532
797.922,0.19752854086562194
798.041,0.19166329700728335
798.16,0.184449506213699
798.279,0.17820758751783583
798.398,0.17113664406669876
798.517,0.17023959676740225
798.636,0.17583615157685206
798.755,0.1755734145005653
798.874,0.18990916565330357
798.993,0.195217474932458
799.112,0.19813479178922216
799.231,0.1971016994018807
799.35,0.1977028486346794
799.469,0.19583733036486284
799.588,0.19504316716340037
799.707,0.19000949890573673
799.826,0.19468009683468054
799.945,0.19255694317937877
800.064,0.19530845508508815
800.183,0.19504571800880127
800.302,0.20075451001588818
800.421,0.21317882768159463
800.54,0.21633592400603807
800.659,0.2305951497967511
800.778,0.2432082300221201
800.897,0.2534082104982913
801.016,0.26056333184765623
801.135,0.2651369976513679
801.254,0.2659787766336461
801.373,0.26326297656354847
801.492,0.24966527001345412
801.611,0.2538495067526372
801.729,0.2514160002402329
801.848,0.26158962198059543
801.967,0.2621550593777823
802.086,0.2628182791820015
802.205,0.2482061864441718
802.324,0.22723058471303895
802.443,0.20059125591023408
802.562,0.174228637584315
802.681,0.1526369879391767
802.8,0.1410502659065715
802.919,0.11800530450900246
803.038,0.1066465369210219
803.157,0.09566939459386974
803.276,0.08562550406228342
803.394,0.07833958307139308
803.513,0.07555821485950018
803.632,0.07194102503983812
803.751,0.07031690523635525
803.87,0.06455969800377678
803.989,0.07116773869358875
804.108,0.0751554059870995
804.227,0.07510907089313851
804.346,0.07753666711255636
804.465,0.0946729750399717
804.583,0.09104528301470224
804.702,0.10481482988148133
804.821,0.10370554239986028
804.94,0.10596680926212174
805.059,0.09820972320695427
805.178,0.09893878683415477
805.297,0.09477587324053266
805.416,0.10457885812298408
805.535,0.09892404947960688
805.653,0.11054124365974163
805.772,0.10786744262861206
805.891,0.11130142169268041
806.01,0.10621102903031238
806.129,0.1276527218261682
806.248,0.14281641344456447
806.367,0.1657278111968882
806.485,0.19247159825465265
806.604,0.22234070422728625
806.723,0.2484571418079256
806.842,0.26594491967931316
806.961,0.2701376913215067
807.08,0.27565690257213893
807.198,0.2685987454330141
807.317,0.2497956457866075
807.436,0.23733479808849728
807.555,0.21806659429733705
807.674,0.21068958148310735
807.793,0.2215987290657215
807.912,0.23185315966211922
808.03,0.24601123400360714
808.149,0.26907005823043684
808.268,0.2884939277610652
808.387,0.30206785850575985
808.506,0.31217944175971013
808.624,0.3182020198361092
808.743,0.3288067665342226
808.862,0.3237306162715531
808.981,0.31369987395864585
809.1,0.30453386823662454
809.219,0.29107819083218556
809.337,0.2731568334126706
809.456,0.2614314794718036
809.575,0.25037614758955823
809.694,0.23780221241201102
809.812,0.23143958578551677
809.931,0.2350830753847296
810.05,0.25185576626208195
810.169,0.2703205179219936
810.288,0.2896610598361945
810.406,0.30960530182859486
810.525,0.31267740205801864
810.644,0.3104675517440967
810.763,0.30990299671371846
810.882,0.3192595297290192
811.0,0.32628799117515045
811.119,0.3404333112896339
811.238,0.35144109156108044
811.357,0.3579806409720501
811.475,0.3559127877187749
811.594,0.36599376082791535
811.713,0.3728164540783789
811.832,0.3882439991476867
811.95,0.3968828943235507
812.069,0.39936404870177944
812.188,0.4010697460781519
812.307,0.38569838377767984
812.425,0.38037225066572783
812.544,0.3708032113703733
812.663,0.3582904964824457
812.782,0.3559794626342899
812.9,0.35751935505960697
813.019,0.35867406982939687
813.138,0.3652280740309716
813.257,0.37067246048317987
813.375,0.384305910953895
813.494,0.3820297386595516
813.613,0.3829922897424787
813.731,0.38433661735373176
813.85,0.3892147161269528
813.969,0.3890234348068982
814.088,0.3934517345077704
814.206,0.411242212700059
814.325,0.42239879228655475
814.444,0.43848275490567884
814.562,0.4588393835712149
814.681,0.465633167240468
814.8,0.47365645839292736
814.918,0.45711935974426887
815.037,0.45677672826376303
815.156,0.45058840940632494
815.274,0.44585832383636864
815.393,0.45384165174421454
815.512,0.45172788327372304
815.631,0.45142266419242916
815.749,0.46088718299636433
815.868,0.462353100905056
815.987,0.47730703901160565
816.105,0.4847793475574824
816.224,0.49624117831027803
816.343,0.5006490712479423
816.461,0.48234848814550113
816.58,0.46376050979456485
816.698,0.4367981059926608
816.817,0.41365601831941956
816.936,0.3888320732452223
817.055,0.3637394391221364
817.173,0.34738855218774
817.292,0.3358647150335391
817.41,0.3241044995388601
817.529,0.3225170555027434
817.648,0.31902923164299857
817.766,0.32124169697233773
817.885,0.3196780608266291
818.004,0.3247160125783023
818.122,0.33160077640018587
818.241,0.3443244253445993
818.359,0.3535950798980715
818.478,0.3647465577937653
818.597,0.3659141857624788
818.715,0.3419687830555289
818.834,0.34271586302126483
818.953,0.3487059414844884
819.071,0.44585363881378515
819.19,0.5616619614991611
819.308,0.7037473745709952
819.427,0.8227222978918098
819.546,0.8856908379924263
819.664,0.8504954193086781
819.783,0.7630270546724542
819.901,0.6239443197370032
820.02,0.5406461098587526
820.138,0.44330278675258983
820.257,0.3896309029996051
820.376,0.3469040676408076
820.494,0.3280812514471956
820.613,0.30665333188332244
820.731,0.29626462093249806
820.85,0.2873230896057521
820.969,0.29616435185008383
821.087,0.3183754451220347
821.206,0.33998453887938646
821.324,0.3635118683781723
821.443,0.3895704867963945
821.561,0.4031843807857035
821.68,0.40940762536696956
821.798,0.39987939959802954
821.917,0.3862120020253215
822.035,0.3763683217084774
822.154,0.361211230421677
822.273,0.3566971164289943
822.391,0.3491347421823039
822.51,0.3407671510707473
822.628,0.325901706441443
822.747,0.320564519666088
822.865,0.3091036033651091
822.984,0.3194133022785257
823.102,0.3313989066202961
823.221,0.3460076303159335
823.339,0.3502811787291549
823.458,0.3650318994854391
823.576,0.3609284716022917
823.695,0.3686541641246539
823.813,0.3680709028946697
823.932,0.3743264581843456
824.05,0.3666680020942225
824.169,0.3484464951992081
824.287,0.3211346255773892
824.406,0.3133078136908105
824.524,0.30491726497064564
824.643,0.3203141998951432
824.761,0.3259005834079979
824.88,0.33235510463893936
824.998,0.339089368582173
825.117,0.34412476948844484
825.235,0.347086333083831
825.354,0.3559411998369649
825.472,0.3606943071855431
825.591,0.3636312126087208
825.709,0.3524313328204261
825.828,0.3484937098883316
825.946,0.33995606241671644
826.064,0.3391508776368569
826.183,0.34460801831606713
826.301,0.3477132795356998
826.42,0.3444414272532244
826.538,0.3438811236318453
826.657,0.3434713198891157
826.775,0.34517276585648393
826.894,0.34008811277580897
827.012,0.33777112695504885
827.13,0.33189571180011246
827.249,0.32057934340517746
827.367,0.30450479805586983
827.486,0.29419176218526666
827.604,0.27969619013908115
827.723,0.27639967968439727
827.841,0.26774724416974316
827.959,0.26584604614932056
828.078,0.274195845513086
828.196,0.2883046035101547
828.315,0.3035756967282074
828.433,0.32685134281410605
828.552,0.333514183086114
828.67,0.33950019904509854
828.788,0.3191495865221783
828.907,0.28837026771881114
829.025,0.24924278108084524
829.143,0.2108649242919734
829.262,0.1716716416293535
829.38,0.14587240539838375
829.499,0.11796855789222606
829.617,0.107904210351501
829.735,0.10495381973175462
829.854,0.10247410589993687
829.972,0.10572235272376178
830.091,0.12672780050550433
830.209,0.1463922706766086
830.327,0.17487408284002914
830.446,0.19773876601451434
830.564,0.22618934340996644
830.682,0.25327330789388597
830.801,0.2636834700395115
830.919,0.26670638390429546
831.037,0.2622850806076189
831.156,0.2460508122596377
831.274,0.2290546914186046
831.392,0.20412969278995097
831.511,0.20186045272978548
831.629,0.20871558666843565
831.747,0.21225632214959037
831.866,0.22470460977048912
831.984,0.2410599422636791
832.102,0.2524887420060407
832.221,0.24733024438851975
832.339,0.23797645636841225
832.457,0.24232921096883497
832.576,0.23192617520718062
832.694,0.2192469350661739
832.812,0.2153451539494682
832.93,0.21794547775951167
833.049,0.20675763189619786
833.167,0.19444656377471273
833.285,0.19001080568743045
833.404,0.20480332023170333
833.522,0.20493442569373022
833.64,0.21256161550703453
833.759,0.21672730811139468
833.877,0.2280370684017159
833.995,0.2353360494401115
834.113,0.2497850501370702
834.232,0.26387438163251026
834.35,0.2896959014082281
834.468,0.3042375828214178
834.586,0.3157310039806
834.705,0.31535619177145946
834.823,0.3123735652808569
834.941,0.30048423693231036
835.059,0.28176289431850543
835.178,0.2637795963073444
835.296,0.25270483792346643
835.414,0.2518496164971662
835.532,0.25702544388025905
835.651,0.26443411127089006
835.769,0.27210466545600775
835.887,0.28145282563307994
836.005,0.3000001846073927
836.124,0.3240344120389192
836.242,0.3373023713152874
836.36,0.34940204339806946
836.478,0.36306283286616764
836.596,0.3701739016267011
836.715,0.373800515569683
836.833,0.38132056987615187
836.951,0.39717253554357446
837.069,0.41258490552025173
837.188,0.41542670936157405
837.306,0.4212785107758912
837.424,0.43603956489355294
837.542,0.4531763063611999
837.66,0.4692484950148951
837.779,0.481165356510617
837.897,0.4855019557568334
838.015,0.48029499207669557
838.133,0.4745013339543639
838.251,0.4659612656171247
838.369,0.4650371713650028
838.487,0.47346702719777256
838.606,0.4781854029723156
838.724,0.47946013745572036
838.842,0.4723834040967648
838.96,0.46484921912925803
839.078,0.4650679036167137
839.196,0.46011772504026116
839.315,0.4515827583938238
839.433,0.4526967896169759
839.551,0.44992163188564244
839.669,0.45035883879577077
839.787,0.45304249022224163
839.905,0.4492197853129619
840.023,0.450138251722049
840.142,0.4435657354706599
840.26,0.42642676728717843
840.378,0.41665464062133184
840.496,0.39981327106794873
840.614,0.3969335286751803
840.732,0.3944313114017365
840.85,0.3877508093617117
840.968,0.3950923044901212
841.087,0.3980795065192916
841.205,0.40731627978052765
841.323,0.4159246947913562
841.441,0.4250832421269668
841.559,0.441629037743419
841.677,0.4530527357949784
841.795,0.4627452601011654
841.913,0.4799415212948324
842.031,0.491502964998037
842.149,0.49978912320655877
842.267,0.5099118901036876
842.385,0.5153181438546575
842.504,0.5239690729554998
842.622,0.5361350670187041
842.74,0.538415684871841
842.858,0.5489244797062975
842.976,0.5394686578701553
843.094,0.5213841763247611
843.212,0.5200060315912889
843.33,0.5138127410228253
843.448,0.5083379385755991
843.566,0.5019235747390625
843.684,0.5007290908744513
843.802,0.5016263002385312
843.92,0.4869310419490574
844.038,0.4877610790509151
844.156,0.5062106556181962
844.274,0.528153189821032
844.392,0.5421277332734342
844.51,0.5600135730071292
844.628,0.5717807849060019
844.746,0.5749916110486466
844.864,0.5676963552670189
844.982,0.5517035669503169
845.1,0.5301584384777798
845.218,0.494678891862237
845.336,0.44349464039550357
845.454,0.411274223920438
845.572,0.37293432932874976
845.69,0.3389657334723063
845.808,0.3146767456302622
845.926,0.2985462116619146
846.044,0.27975004424968575
846.162,0.26985717756819955
846.28,0.24750428138539463
846.398,0.24314249781473599
846.516,0.23403529151670882
846.634,0.20455220399041232
846.752,0.18648651925584625
846.87,0.17103421741022282
846.988,0.15113035574576036
847.106,0.15090878228402005
847.224,0.1410720543815035
847.342,0.13907813977863087
847.46,0.13992928207396346
847.578,0.11854436775431126
847.696,0.11098000023848348
847.814,0.10260145245523916
847.932,0.09454982400866618
848.05,0.09701977746576979
848.168,0.11576353430972092
848.285,0.13471642137078094
848.403,0.15120571025466156
848.521,0.15309476287772988
848.639,0.16387244208261598
848.757,0.16719682793825014
848.875,0.1694530771367116
848.993,0.18670659672853004
849.111,0.20386913616771868
849.229,0.2083131604383039
849.347,0.21235500141735628
849.465,0.21526936872923597
849.582,0.22559989390316681
849.7,0.23219002943766134
849.818,0.23391910391994902
849.936,0.2469025083107565
850.054,0.257971078087331
850.172,0.26807882942958805
850.29,0.28304934238765234
850.408,0.2966177406570531
850.525,0.30471457554164516
850.643,0.3123293006454779
850.761,0.3050232807179789
850.879,0.30959314669500504
850.997,0.32112341948913165
851.115,0.32427076401428734
851.233,0.33193310489893524
851.35,0.344290701884735
851.468,0.3453395509267966
851.586,0.3608695493094445
851.704,0.37271187552427343
851.822,0.39732203325212234
851.94,0.42412931915189755
852.057,0.4619800650737226
852.175,0.5113300220625483
852.293,0.5701929318329183
852.411,0.6261614823551316
852.529,0.6862292414364994
852.647,0.7381189901627645
852.764,0.7828519169760642
852.882,0.8143221482685805
853.0,0.8459173709857379
853.118,0.8630382466167112
853.236,0.8759714843813007
853.353,0.8789708798732065
853.471,0.8685562296838789
853.589,0.8498436794056086
853.707,0.8241103523024178
853.824,0.7936579612076675
853.942,0.7628731099290071
854.06,0.7261209809759744
854.178,0.6902216846686235
854.296,0.6482114130626531
854.413,0.6069051747873149
854.531,0.5640488727900643
854.649,0.5258546659037546
854.767,0.48362077018431
854.884,0.4336544117731095
855.002,0.3850859166415711
855.12,0.32913187379279174
855.238,0.2811475222580463
855.355,0.24570567755924605
855.473,0.21481028964654847
855.591,0.19000802111466467
855.708,0.16081669830417814
855.826,0.13296440500239382
855.944,0.11493141089712419
856.062,0.08993241245324932
856.179,0.07607361739790283
856.297,0.06678057795010564
856.415,0.061707006239386714
856.532,0.05061633237553828
856.65,0.03926596554988111
856.768,0.03976924943825304
856.886,0.03406745096122118
857.003,0.02970857349836105
857.121,0.02903205002619811
857.239,0.027802038742845703
857.356,0.028668548733364493
857.474,0.0231677730484092
857.592,0.02715474255713271
857.709,0.04118408526764557
857.827,0.046346750640076304
857.945,0.058301159731925595
858.062,0.07266461348684738
858.18,0.08430458940773347
858.298,0.08918474246014019
858.415,0.09392211200074194
858.533,0.09595290134654981
858.651,0.10085278619207394
858.768,0.10399035602473031
858.886,0.11735256450576598
859.003,0.12492435032413071
859.121,0.11881823557759795
859.239,0.10912239071964965
859.356,0.10211827929681191
859.474,0.08939595441330248
859.592,0.07673470997001844
859.709,0.06626302345165004
859.827,0.06578105342397543
859.944,0.05387867859458082
860.062,0.044090231059225174
860.18,0.046895877329293914
860.297,0.056546984223006205
860.415,0.06496851231864739
860.532,0.07260465820114771
860.65,0.08291869134784961
860.768,0.09061392095231968
860.885,0.09958207553024806
861.003,0.10953279799634152
861.12,0.11736132977545585
861.238,0.11969768388580018
861.356,0.11965344596459826
861.473,0.11915090615304502
861.591,0.12042630558587952
861.708,0.11635853418574792
861.826,0.11868318136012895
861.943,0.10922585765058938
862.061,0.0941578504023419
862.178,0.0835768400375582
862.296,0.07442203924236503
862.414,0.06895425596980274
862.531,0.06668271855470913
862.649,0.06486625827421377
862.766,0.07195004387326163
862.884,0.0735691269909414
863.001,0.07729808004221603
863.119,0.08212987675990749
863.236,0.08934776147786165
863.354,0.09526484982424352
863.471,0.09325342397358058
863.589,0.0945515187489831
863.706,0.10484913086721175
863.824,0.11139707427485272
863.941,0.11661019393013528
864.059,0.12200417865279292
864.176,0.1391671964758436
864.294,0.13980498859727816
864.411,0.13404441017159818
864.529,0.12813588271266957
864.646,0.12301131507360026
864.764,0.12044694593517737
864.881,0.11660630381453271
864.999,0.12033146915278885
865.116,0.13784650472800286
865.233,0.15037548782636875
865.351,0.16341038859590185
865.468,0.17832116806115872
865.586,0.18966151815056803
865.703,0.2042223008901458
865.821,0.20923981663016933
865.938,0.20621767768214305
866.056,0.2031836600006259
866.173,0.23090518296710563
866.29,0.25996192495003456
866.408,0.2869057541578647
866.525,0.29932898646191164
866.643,0.2967278167021602
866.76,0.27721262220409415
866.878,0.2434506977141188
866.995,0.21247414405749704
867.112,0.2154854869810363
867.23,0.21639954216541069
867.347,0.2196264423687014
867.465,0.2186027838523872
867.582,0.21788522678417424
867.699,0.21308121538381075
867.817,0.21147086242530283
867.934,0.2185121267846545
868.051,0.24303348439418365
868.169,0.26028153148410876
868.286,0.27282326880947816
868.404,0.2805940749534706
868.521,0.28696871838140153
868.638,0.2863931583738354
868.756,0.2901778434381105
868.873,0.29971893629028834
868.99,0.3341248198280844
869.108,0.3586750870188228
869.225,0.3810222740650331
869.342,0.4157419115871326
869.46,0.45676723894011617
869.577,0.49915301717354926
869.694,0.5290362518156501
869.812,0.5454790820407083
869.929,0.565590878233979
870.046,0.5722529169104044
870.164,0.564196577623965
870.281,0.5681547201754968
870.398,0.5784721203113303
870.516,0.5813657100489105
870.633,0.5771619975995448
870.75,0.5650795739887751
870.867,0.5531578536382584
870.985,0.5428270105360677
871.102,0.5144940011583269
871.219,0.48792022482536734
871.337,0.46189658081718965
871.454,0.43703357146639565
871.571,0.40707737413191836
871.688,0.3891552151168185
871.806,0.3734471899096506
871.923,0.3649282973238588
872.04,0.34038839505717144
872.157,0.3127466647830589
872.275,0.2863335917103523
872.392,0.2719111925852087
872.509,0.25346951139013646
872.626,0.24688756074538412
872.744,0.240318364327636
872.861,0.2378560290052452
872.978,0.22043383568870972
873.095,0.2044018531156339
873.213,0.18881116679690368
873.33,0.18441784150607438
873.447,0.1669820206866253
873.564,0.1440499936395656
873.681,0.12602838669247388
873.799,0.10765958517946939
873.916,0.08014601706247454
874.033,0.06699970958504625
874.15,0.07023239003451917
874.267,0.06768757838164752
874.385,0.06723086527913022
874.502,0.06488084346827887
874.619,0.06278810233651255
874.736,0.06424481194950765
874.853,0.06380927417247895
874.97,0.06721050762293614
875.088,0.07790655576565664
875.205,0.07870377539745657
875.322,0.08484492331100524
875.439,0.07782996519664181
875.556,0.06923736289179402
875.673,0.06835437284739282
875.791,0.06581992844314742
875.908,0.06444887224308588
876.025,0.06740819131835646
876.142,0.0756001696164588
876.259,0.07625777936907832
876.376,0.07169933641965304
876.493,0.056945707352360125
876.61,0.048163474617471516
876.728,0.04488846862701459
876.845,0.04190474826185868
876.962,0.04159520994988294
877.079,0.04441640856125935
877.196,0.05229111460274087
877.313,0.04768736450876501
877.43,0.04022106699810652
877.547,0.05580866413499114
877.664,0.0903613622864587
877.781,0.10348385540701481
877.898,0.10989486633247528
878.016,0.10584602997002784
878.133,0.09437670602957482
878.25,0.06535069560360134
878.367,0.0457224262101624
