wavelength_nm,intensity
792.446,200.4993773247301
792.565,186.31755914291188
792.684,172.24483187018456
792.803,158.28119550654816
792.922,144.42665005200251
793.041,121.42665005200251
793.16,101.22405264940514
793.279,93.1495937749463
793.398,101.80760243295502
793.518,117.72708295243555
793.637,133.6656110909638
793.756,149.67859810395078
793.875,171.51582754118016
793.994,182.66128208663457
794.113,173.86387948923192
794.232,165.00240762776002
794.351,152.8370396623921
794.47,132.076866502219
794.589,112.24223446758705
794.708,95.20500503035763
794.827,94.20413922949186
794.946,88.22318684853947
795.066,89.1331435584962
795.185,95.05608728143994
795.304,101.23877126412401
795.423,103.28206130741405
795.542,103.59894442429714
795.661,96.29245091780359
795.78,89.65435567970837
795.899,79.47773230308498
796.018,74.15132537667802
796.137,63.440502865855464
796.256,58.446563471916065
796.375,65.70716953252207
796.494,65.54239608388748
796.613,61.409488021134536
796.732,62.12424907733929
796.851,55.40965727000602
796.97,44.376561500304504
797.089,29.01527403347192
797.208,20.397880152326337
797.327,29.072733284008873
797.446,28.328620557710828
797.565,35.418267901063565
797.684,53.12176622464021
797.803,59.65830551061688
797.922,60.14614248512932
798.041,59.50103634896918
798.16,58.457111925947615
798.279,55.17792000690073
798.398,39.45014317619756
798.517,46.337032709539585
798.636,50.451488923434255
798.755,53.15336747893959
798.874,55.049912282097154
798.993,67.86155634973278
799.112,78.00893479646957
799.231,75.3254389472819
799.35,71.24973530588645
799.469,79.42511391557312
799.588,72.58317650794373
799.707,67.74297070204588
799.826,63.08544887883202
799.945,65.08247251016348
800.064,69.41542687742557
800.183,74.36223405854037
800.302,77.02852175913573
800.421,85.23160599652752
800.54,86.6130452122743
800.659,95.0005450340818
800.778,100.02960329744775
800.897,106.7573628595149
801.016,116.07386701032655
801.135,126.87435384512084
801.254,120.51986232493665
801.373,117.19221063159213
801.492,102.11477538846414
801.611,97.25811936611552
801.729,90.74345468575831
801.848,97.07467745128861
801.967,99.24053225145101
802.086,103.49296713819356
802.205,98.37916825870226
802.324,89.34465401975335
802.443,63.24850354219815
802.562,38.35747014858573
802.681,16.438450924717777
802.8,1.3637579089418197
802.919,-20.794409335650332
803.038,-22.194026893679585
803.157,-25.50084395303312
803.276,-25.90108136093994
803.394,-34.39939170570956
803.513,-34.73566570281595
803.632,-35.15528011561234
803.751,-38.55471641855672
803.87,-39.34511825109112
803.989,-28.83553475308542
804.108,-30.083248258315123
804.227,-25.942284374440348
804.346,-26.717719445550273
804.465,-16.84237493419907
804.583,-21.114401450506747
804.702,-18.666114931862197
804.821,-9.74011768233225
804.94,-2.53279936279299
805.059,-2.134883413820196
805.178,-3.2706294157874884
805.297,-10.161062804222436
805.416,-6.671881464268397
805.535,-13.332953442704266
805.653,-7.626190120360137
805.772,5.542398351005189
805.891,9.707936353780731
806.01,7.810441741337811
806.129,16.642658981164782
806.248,23.990591868171215
806.367,34.12526712893751
806.485,44.294055332506474
806.604,65.89614871295319
806.723,80.37557726013895
806.842,94.23674209770121
806.961,106.95430456846049
807.08,111.82899862239293
807.198,110.80038128898629
807.317,98.1260829758215
807.436,83.95583344259865
807.555,74.00505487472999
807.674,67.83624716472539
807.793,74.65379310699736
807.912,79.24854714244978
808.03,87.09134185198464
808.149,108.27266470004773
808.268,136.7189226130459
808.387,157.0915874524511
808.506,175.12399255159661
808.624,187.07068336502766
808.743,187.61217937326376
808.862,172.87661910444348
808.981,153.56530125986563
809.1,133.96653752784178
809.219,120.2058690339133
809.337,104.33524383002833
809.456,91.43085239237732
809.575,86.4961579244233
809.694,92.26276215776815
809.812,91.43889020063683
809.931,93.75441218289943
810.05,96.30629780152553
810.169,103.81749077945898
810.288,111.74253657124524
810.406,114.4848983803474
810.525,123.46102642321577
810.644,132.5531717821014
810.763,138.8011612968312
810.882,146.22317678558701
811.0,146.16813599728658
811.119,156.02738092327175
811.238,169.31173407436518
811.357,172.49652012589135
811.475,180.44321093932214
811.594,185.57778054063147
811.713,194.09157092116152
811.832,197.90579420212424
811.95,191.65681401988337
812.069,193.08489011469868
812.188,196.8688103653581
812.307,190.90554446883135
812.425,194.39768982771574
812.544,195.16256245932738
812.663,198.5473485108524
812.782,194.54425577449837
812.9,196.21735351433455
813.019,199.76837333209278
813.138,208.57480440526228
813.257,210.78902768622402
813.375,224.27164923558405
813.494,224.41227944295292
813.613,220.52520402261632
813.731,214.75501171916295
813.85,219.40386703475718
813.969,219.44579594342508
814.088,227.19681576118387
814.206,228.43268406379116
814.325,240.388032885879
814.444,244.18840335298847
814.562,244.8727565040805
814.681,246.62291052097356
814.8,250.97046713526922
814.918,244.86607569761685
815.037,241.61103490931524
815.156,240.1447387097584
815.274,239.38060701236626
815.393,240.75413765263653
815.512,237.02896699420546
815.631,235.68994352192144
815.749,243.36823606695307
815.868,246.2551866206425
815.987,255.53434496653955
816.105,261.9797370786704
816.224,268.5177698834419
816.343,273.38827022068097
816.461,254.8310649302145
816.58,232.2877124536008
816.698,211.1123253449524
816.817,193.0165919159577
816.936,179.13817450427885
817.055,168.60954064238365
817.173,163.85060375018537
817.292,158.23279239911267
817.41,145.37775161081075
817.529,130.2791614931973
817.648,116.83413528632289
817.766,117.60220656610443
817.885,119.54645478545157
818.004,125.59021523097641
818.122,135.51578032169456
818.241,148.9037935484194
818.359,158.3531628936752
818.478,159.8923162429527
818.597,164.09952021620683
818.715,157.09572169372558
818.834,156.99294256318757
818.953,178.87224495371606
819.071,253.32334345671305
819.19,379.06227433397623
819.308,503.71314312825973
819.427,605.1002241335686
819.546,642.0197598178147
819.664,599.4934983126931
819.783,501.182271267401
819.901,371.8846198923455
820.02,273.36714075835494
820.138,215.1912725717857
820.257,160.88656356324486
820.376,125.80015997915466
820.494,101.37508375966783
820.613,89.08448664045164
820.731,78.49398522894545
820.85,71.05693426760331
820.969,90.74905866852632
821.087,115.87364831865712
821.206,128.41220743042945
821.324,151.921312305737
821.443,173.17412510108994
821.561,180.73864874364787
821.68,179.92914641217993
821.798,166.4399904010582
821.917,154.63395127305324
822.035,138.2798601969962
822.154,120.85390764907763
822.273,118.85825813146194
822.391,109.4545780261889
822.51,105.44672783649693
822.628,105.99578293730264
822.747,114.0122413674087
822.865,117.17940045288094
822.984,125.47197152566223
823.102,124.20802797552147
823.221,133.38753338858058
823.339,129.1858480408223
823.458,135.47853498743615
823.576,137.01191457474252
823.695,143.9418309585855
823.813,144.21114128182234
823.932,142.68478060938816
824.05,124.39738097591513
824.169,121.47275190521262
824.287,110.05981114619865
824.406,110.86938120969562
824.524,117.46250105674235
824.643,121.57163821980635
824.761,130.25566715776193
824.88,137.4063627623841
824.998,142.89385490380272
825.117,141.48957215344643
825.235,139.44892576672657
825.354,136.53814950987706
825.472,131.891442517097
825.591,124.30793898752063
825.709,126.06296359647263
825.828,131.3651743526109
825.946,135.43535047671466
826.064,130.7730590683509
826.183,138.05968540890473
826.301,134.88830309144998
826.42,125.06670432377878
826.538,119.62432633532845
826.657,123.53952410445397
826.775,125.22182144067929
826.894,131.36472483751086
827.012,126.10484652863369
827.13,125.18448502789144
827.249,113.78407000967483
827.367,93.74159036536551
827.486,76.03951095452678
827.604,67.83985818489704
827.723,66.75434988252016
827.841,75.28768533503555
827.959,79.06438511851749
828.078,92.90197392271507
828.196,103.56614892882118
828.315,114.79087753249718
828.433,119.43465375522082
828.552,134.2455295450439
828.67,138.81484689330853
828.788,132.60283021119196
828.907,113.39888997929657
829.025,78.84699253417674
829.143,46.455194381581364
829.262,9.430951519209973
829.38,-21.941947336830584
829.499,-24.79747108099265
829.617,-31.206201771791527
829.735,-31.576251277338997
829.854,-26.75639724698302
829.972,-23.295160521173102
830.091,-8.619527444126627
830.209,-0.7289820478508222
830.327,11.592180913423551
830.446,29.635069184258768
830.564,44.879168082037694
830.682,62.50854449078933
830.801,74.47340483328627
830.919,77.88314693000811
831.037,74.63017262225452
831.156,61.33418186795686
831.274,46.65481554037533
831.392,26.627609716944605
831.511,24.04933624872393
831.629,29.324732472814123
831.747,31.20078871708559
831.866,40.6834820520176
831.984,48.103033726270084
832.102,41.45522629321441
832.221,32.49146292140381
832.339,22.0697286983849
832.457,29.688545066434553
832.576,31.312495573380197
832.694,32.995236950269266
832.812,38.4766989856696
832.93,42.313895497385786
833.049,24.653726747463054
833.167,11.507587648755807
833.285,3.52691885626099
833.404,6.849269012467969
833.522,7.694474407834333
833.64,17.549095280625775
833.759,33.313278025647776
833.877,35.992936214747374
833.995,45.899738742251586
834.113,63.94130207254683
834.232,72.64711480455085
834.35,84.52658821217109
834.468,97.03074057325388
834.586,115.31286252104479
834.705,126.21401674704862
834.823,115.80151094741908
834.941,116.48857224735664
835.059,109.94706211872284
835.178,88.85739124424725
835.296,68.31642205026094
835.414,62.8193160101172
835.532,62.345247929905824
835.651,69.32104231208965
835.769,80.25407378840498
835.887,92.36257015016457
836.005,106.56955174219674
836.124,115.24395700397143
836.242,118.51663066401468
836.36,137.7356246703783
836.478,144.39964032176363
836.596,152.11300662249937
836.715,159.84195733881953
836.833,169.54406822829986
836.951,179.50332197492293
837.069,187.18205624102654
837.188,201.66079050713034
837.306,220.10142953513915
837.424,227.44942787050746
837.542,225.95327036172
837.66,229.6891474849674
837.779,238.7748081579985
837.897,238.42323939380032
838.015,238.19721175514337
838.133,243.0248637701662
838.251,245.4274075600809
838.369,245.18839290843727
838.487,244.46279817021355
838.606,243.7467272415137
838.724,244.8038164859743
838.842,244.24705291658242
838.96,241.2530599099613
839.078,240.4408850851584
839.196,241.4572816889269
839.315,245.82259604161317
839.433,247.95414416053302
839.551,244.4882896820504
839.669,247.13498931612202
839.787,248.8561478246525
839.905,241.30457906045586
840.023,236.8274691707179
840.142,226.80663633725692
840.26,216.61610653409892
840.378,209.69830400366817
840.496,212.44716813990402
840.614,210.82633530644287
840.732,210.75874922622847
840.85,203.9154055702568
840.968,196.54652078874398
841.087,193.5083719379673
841.205,188.97411919108686
841.323,200.63467163901166
841.441,213.9177349094474
841.559,225.1774215565066
841.677,236.39035495681256
841.795,242.42579917962954
841.913,249.3504208916238
842.031,266.76162269019807
842.149,272.22477254072015
842.267,290.6437665470862
842.385,299.7761804668721
842.504,309.6012350792986
842.622,314.930185795621
842.74,310.8669287197356
842.858,307.14219978237827
842.976,303.573315000865
843.094,290.6381964531181
843.212,294.6745064767998
843.33,291.99566498533017
843.448,296.844962021999
843.566,299.5254278898367
843.684,294.6517812035619
843.802,297.35822109737353
843.92,297.0499423764665
844.038,298.926079239975
844.156,305.604813506081
844.274,318.3320326206716
844.392,332.1501608261715
844.51,339.70681717019966
844.628,345.17083282158706
844.746,345.7525973907232
844.864,335.03392905942644
844.982,319.99404860691754
845.1,299.52819412843473
845.218,278.05541324302555
845.336,255.22072759571176
845.454,231.525435887792
845.572,209.96780651753463
845.69,181.9357182728184
845.808,156.35904128351342
845.926,137.54946386130794
846.044,118.5996266988428
846.162,104.24892373551194
846.28,88.72278283280562
846.398,79.20075176926863
846.516,70.94072771734278
846.634,56.435639957759
846.752,47.036016928394965
846.87,34.10078934438223
846.988,24.70688910743144
847.106,14.245880906488427
847.224,2.7609334645115178
847.342,4.22331632158763
847.46,1.2812427177010468
847.578,-4.710602586554915
847.696,-11.287110398192016
847.814,-15.67026707616533
847.932,-18.206379376115592
848.05,-27.973222601334555
848.168,-23.239274030464706
848.285,-11.51155992613291
848.403,-0.37599054056066694
848.521,4.905653658025053
848.639,10.064895412430872
848.757,28.14828319157853
848.875,42.715744996036236
848.993,59.630794375973835
849.111,77.89037426853764
849.229,92.42499214728377
849.347,102.58082192449157
849.465,106.06000591509411
849.582,107.41236679012374
849.7,108.33096143138698
849.818,117.76557338866769
849.936,123.0798390256021
850.054,128.48934275777466
850.172,138.78456077566153
850.29,151.8503415641113
850.408,163.46157689801552
850.525,163.49532305443057
850.643,161.69357137534772
850.761,163.96368116812636
850.879,160.20435373146762
850.997,164.80000464978707
851.115,171.57054734299825
851.233,182.32896882408812
851.35,193.0086024263901
851.468,196.19646113691724
851.586,206.09254495566944
851.704,219.6197976055904
851.822,246.03016713862831
851.94,273.59378342491306
852.057,316.0569668107648
852.175,361.4032670797334
852.293,412.05779245692713
852.411,459.17032649212945
852.529,497.20060944508054
852.647,529.8629270300662
852.764,566.1737294635366
852.882,589.7304193428943
853.0,608.3581048932476
853.118,621.4844917423025
853.236,630.9468093272881
853.353,633.4273087304555
853.471,614.4904921163069
853.589,599.2428529913359
853.707,589.2454303165812
853.824,570.8298258236447
853.942,545.1813208978075
854.06,523.956192595347
854.178,494.8739214357436
854.296,465.2946805791705
854.413,423.0531020602597
854.531,384.53966206948746
854.649,348.29375454624767
854.767,308.03399420915514
854.884,276.83916893699745
855.002,234.152568773065
855.12,194.5915097346737
855.238,165.4555589213906
855.355,129.5464479349473
855.473,101.0416659528333
855.591,84.07762844068688
855.708,58.434099843210646
855.826,44.02696861644179
855.944,16.91019310667893
856.062,12.446625893487035
856.179,5.70847211549129
856.297,-4.758140979889847
856.415,-7.37808927218685
856.532,-4.347152317537265
856.65,-18.622546623346967
856.768,-21.743006383896912
856.886,-36.629447642569275
857.003,-35.4393382584694
857.121,-43.32117527779859
857.239,-52.82635228174417
857.356,-64.94944275958017
857.474,-75.67357371524957
857.592,-27.241916526223793
857.709,36.73959149067472
857.827,69.90969262213497
857.945,90.08345753807518
858.062,80.95727193038779
858.18,56.48604944924492
858.298,10.344475552555421
858.415,-27.76971464070028
858.533,-6.769146685180716
858.651,13.489799805289257
858.768,20.916389374515315
858.886,26.184798190210202
859.003,21.852597237970542
859.121,21.12348055809239
859.239,14.48833842745616
859.356,3.519508680295781
859.474,-8.215946591634205
859.592,-7.711211949808814
859.709,-7.9716903792279545
859.827,-10.470349029754434
859.944,-13.616558461097778
860.062,-12.422943668971108
860.18,-14.32123588078521
860.297,-18.48561111614483
860.415,-18.43620681810056
860.532,-16.266502033880474
860.65,-19.576084399631327
860.768,-12.842971686759032
860.885,-5.419623235230979
861.003,5.522456078019503
861.12,10.130596593066649
861.238,13.909712462507697
861.356,16.4363940414772
861.473,16.119558192301017
861.591,18.877508467646244
861.708,23.52716359572534
861.826,29.36792170643029
861.943,29.483247527740506
862.061,18.492691655808567
862.178,6.420169759558043
862.296,-2.722089618277832
862.414,-5.597163551583334
862.531,-7.692876419113473
862.649,-7.787852951342696
862.766,-3.447628835817262
862.884,-2.1445715476093667
863.001,-6.498170554361575
863.119,-6.913593476354476
863.236,-4.379134332423593
863.354,-2.3719275453968587
863.471,3.275365252488813
863.589,7.824643810302259
863.706,6.862759838196647
863.824,18.44565830202854
863.941,24.060645567661922
864.059,32.68209335047457
864.176,36.76349255507892
864.294,37.99103790300221
864.411,37.161939227126076
864.529,30.24980881557316
864.646,28.722651421189745
864.764,36.65593288553037
864.881,43.06510210624334
864.999,50.359656851417526
865.116,53.57184186795264
865.233,65.19672607196031
865.351,70.43935803155543
865.468,75.91229302145356
865.586,92.49431892044248
865.703,108.56465650774304
865.821,116.42720188725134
865.938,118.7919117689241
866.056,117.48908918306424
866.173,110.84947006040795
866.29,99.82543535333605
866.408,90.41525346011707
866.525,96.70290706473354
866.643,103.11004118883059
866.76,102.31544371119597
866.878,107.58145229416733
866.995,105.85698468666243
867.112,100.22256036920083
867.23,97.66605812966135
867.347,96.70176368232973
867.465,103.69331339084219
867.582,114.66321807770971
867.699,117.81407514552953
867.817,126.07488892330608
867.934,126.71059447597439
868.051,137.43807492041745
868.169,144.07031726962256
868.286,146.5553734716416
868.404,148.01185824508923
868.521,158.55665470684863
868.638,164.17244683960374
868.756,178.8722216563416
868.873,197.65165015273323
868.99,228.35229077033694
869.108,250.8460049810143
869.225,268.6384204903929
869.342,280.45161522055076
869.46,318.28558917148786
869.577,341.73168433454623
869.694,364.08254140236664
869.812,377.3260391628277
869.929,387.3989741527261
870.046,398.52472299543825
870.164,397.41064499832356
870.281,395.4446189492609
870.398,410.25348467509014
870.516,403.29265343122245
870.633,395.85996071549346
870.75,377.8281338006302
870.867,363.1582116476721
870.985,357.5359085423329
871.102,340.0140383374268
871.219,323.2540728944256
871.337,299.4845836419007
871.454,278.9627134369949
871.571,266.15686054810635
871.688,244.41680852501867
871.806,228.34948377465815
871.923,218.8457953879339
872.04,202.43388189298457
872.157,185.91287748894445
872.275,173.75204624507757
872.392,163.4275786375744
872.509,158.3637170906772
872.626,143.43405467797908
872.744,138.95634031722878
872.861,135.0864181642706
872.978,113.85892025373668
873.095,105.65912797090834
873.213,98.141586770331
873.33,88.07772522343345
873.447,74.35375293477743
873.564,60.939695743801444
873.681,55.75737173618992
873.799,48.04163381142372
873.916,27.776412787021567
874.033,19.791112302706562
874.15,10.663704019812371
874.267,9.247660091933733
874.385,-4.273309437858158
874.502,-10.820174844058325
874.619,-8.48515809673762
874.736,-6.73082011765047
874.853,-10.519044179826748
874.97,-9.816360325514829
875.088,-3.3761896315622097
875.205,0.9403276206716836
875.322,0.6430850758985365
875.439,-0.6586791147473552
875.556,3.6986618271284875
875.673,1.8484418516788954
875.791,-2.0543870915232842
875.908,6.3908614446737655
876.025,10.077578619836219
876.142,11.933236287657154
876.259,12.175084018342655
876.376,4.234175172089623
876.493,-6.506532224280859
876.61,-16.95447174295151
876.728,-21.86372271609971
876.845,-17.288333420489455
876.962,-18.297174553883497
877.079,-13.17957073859602
877.196,-9.385007022564057
877.313,-9.415369080295028
877.43,-12.662024259743404
877.547,-11.319531419884681
877.664,-9.965776878581817
877.781,-13.914574617462788
877.898,-14.950781867815872
878.016,-15.567191035016377
878.133,-15.37480063424399
878.25,-8.24429284744184
878.367,-9.242106761757462
878.484,-5.789447521185687
878.601,-1.2827262010153149
878.718,-4.580923766420621
878.835,-11.57278681909045
878.952,-15.50434447763427
879.069,-19.987849755849574
879.186,-25.64686935237686
879.303,-27.31777376238394
879.42,-25.532619803622246
879.537,-17.350148972141792
879.654,-9.2099981354282
879.771,-7.853363972300236
879.888,-2.427497958457111
880.005,-5.36902625176603
880.122,-13.02562274474122
880.239,-25.397287437382694
880.356,-42.48402032969046
