wavelength_nm,intensity
792.446,168.65038158126904
792.565,151.54735127823875
792.684,136.04518677607425
792.803,122.14388807477553
792.922,109.84345517434248
793.041,92.5464854773728
793.16,79.78111751200481
793.279,73.1014638323511
793.398,81.38544651633384
793.518,93.9776543085416
793.637,105.97332530421261
793.756,119.66077119165851
793.875,132.67462400551128
793.994,142.48761101849823
794.113,140.7309010617883
794.232,134.81921275010006
794.351,122.82181015269751
794.47,109.13176686265425
794.589,94.4365287674162
794.708,84.05297898386641
794.827,74.89886642975387
794.946,70.27029500118242
795.066,70.42960236048975
795.185,71.6616369925244
795.304,69.88414781503516
795.423,69.20103093191825
795.542,74.6183469492342
795.661,65.94648547737269
795.78,61.33263266351991
795.899,62.20189673278395
796.018,59.81142054230778
796.137,60.42267595356325
796.256,56.64432097520836
796.375,57.99670192758936
796.494,54.14759625160027
796.613,37.522002400283384
796.732,33.10903020046701
796.851,29.094930705586982
796.97,21.273509618392502
797.089,21.298810209878056
797.208,23.721225341655064
797.327,35.82212950058378
797.446,36.114311699206304
797.565,47.942071360333145
797.684,59.25718330425897
797.803,65.76664488415494
797.922,67.65473557467148
798.041,62.3575448799064
798.16,61.796284921072115
798.279,54.1467860319477
798.398,44.16679130702833
798.517,45.18727988925889
798.636,39.530648788215906
798.755,34.86395963335406
798.874,37.02577850084606
798.993,34.882452969860154
799.112,46.59131558576321
799.231,46.49539196299397
799.35,43.05465572330184
799.469,47.41292478173649
799.588,44.31596640231729
799.707,36.60545127510632
799.826,37.18888527203819
799.945,30.85650183663753
800.064,34.22509522749334
800.183,41.40224261136007
800.302,47.43929937620483
800.421,60.93522783164214
800.54,56.80855577272747
800.659,58.10493390161642
800.778,62.568982616292594
800.897,62.15381982458237
801.016,59.4789167731319
801.135,64.54600506367282
801.254,67.63906738018778
801.373,67.67498683955989
801.492,53.05809244611831
801.611,60.48621969769859
801.729,68.99313482806691
801.848,77.42385948224478
801.967,65.99260308548628
802.086,60.00324458992954
802.205,50.70411491798383
802.324,39.74542390383304
802.443,15.390296425922486
802.562,13.025595060420873
802.681,13.751964938567252
802.8,12.261353035388378
802.919,7.709563521117002
803.038,7.131527083175743
803.157,-0.0401593117772725
803.276,-0.9275562236438493
803.394,-12.69982494564146
803.513,-15.132998131172867
803.632,-18.57585784297322
803.751,-23.153821247142034
803.87,-25.463594956621975
803.989,-28.00698515881825
804.108,-26.886923322541
804.227,-21.665972076227945
804.346,-22.487924046722913
804.465,-16.00640826986055
804.583,-15.490406944655017
804.702,-17.6043294176619
804.821,-16.309560291264525
804.94,-16.637734649869746
805.059,-17.642831992971256
805.178,-16.324103563194335
805.297,-21.140867468312752
805.416,-22.136770771111728
805.535,-21.451289456346714
805.653,-26.553871607809093
805.772,-15.799437082092147
805.891,-15.681161566621205
806.01,-9.135325803029126
806.129,7.619714250304657
806.248,14.840325101565227
806.367,21.110385973830354
806.485,33.28117749685209
806.604,44.03918180620722
806.723,55.312757452018744
806.842,60.39392847409824
806.961,72.42574884682713
807.08,76.096530258517
807.198,71.94480084769614
807.317,58.947141477396755
807.436,54.08977018975126
807.555,47.255892236062124
807.674,37.03112749802915
807.793,32.64554981624618
807.912,44.17974759626182
808.03,53.654867098622745
808.149,66.59624880250996
808.268,81.26892524123656
808.387,95.25128584706546
808.506,103.04617647929726
808.624,108.87137014183205
808.743,108.81171531951817
808.862,110.48885703400077
808.981,99.02054420302888
809.1,85.23534825517383
809.219,71.20845161979392
809.337,54.24369887710732
809.456,41.68465279869966
809.575,41.82038580773404
809.694,47.263818282073366
809.812,50.42098262354443
809.931,54.27197563889038
810.05,57.55191092072292
810.169,65.27559417219796
810.288,72.67699314764673
810.406,72.3475328228493
810.525,75.58170886168838
810.644,72.97605806070064
810.763,73.78858907789456
810.882,81.90501619898455
811.0,85.36516626379722
811.119,87.23051113380484
811.238,91.1374144453709
811.357,90.60189351451264
811.475,86.33217344945544
811.594,86.97847070041561
811.713,91.79706232367016
811.832,97.80266693393773
811.95,104.1883581242917
812.069,96.55846489906142
812.188,101.61861496387439
812.307,106.19997714989955
812.425,108.58480253938814
812.544,111.19819935744815
812.663,106.69471305862507
812.782,102.77131333988862
812.9,107.39769717093563
813.019,106.12797710587868
813.138,118.69981548238003
813.257,125.92013870736619
813.375,134.23137102326132
813.494,138.66381546036857
813.613,132.14041574163178
813.731,133.99277359865272
813.85,126.55595396649645
813.969,120.73645035165652
814.088,121.80179522166533
814.206,121.66714009167427
814.325,131.03551526471358
814.444,134.1363579702204
814.562,131.1298413683679
814.681,138.53284857603919
814.8,133.06139690925176
814.918,130.86180671432584
815.037,129.6111342683177
815.156,127.99336225520997
815.274,123.15048201699395
815.393,120.08855415973018
815.512,117.16948344532359
815.631,119.53439541489962
815.749,125.43004331521152
815.868,131.66508515491716
815.987,136.66895816345396
816.105,135.38625108541055
816.224,130.96241846624145
816.343,134.8277633362498
816.461,129.00393071708052
816.58,117.93507645288952
816.698,108.41600573848174
816.817,103.60775753489632
816.936,95.81509374689517
817.055,89.17740831387232
817.173,78.98062213739493
817.292,77.44545867877646
817.41,74.73873030525047
817.529,65.92914315194604
817.648,61.31759992956622
817.766,65.92650129022469
817.885,64.39325232095196
818.004,69.44212401555717
818.122,71.30330089367575
818.241,81.45397560697594
818.359,92.91665342816569
818.478,99.72561230180665
818.597,105.00989585077238
818.715,110.12517369329855
818.834,122.31150538602321
818.953,138.97882348594158
819.071,197.97788847642732
819.19,263.4945088393746
819.308,336.74285080003926
819.427,388.96265652218483
819.546,402.6440418753374
819.664,377.212980885471
819.783,317.6849880857494
819.901,240.2780194647195
820.02,189.01268991571783
820.138,138.94366182977836
820.257,110.20720464708495
820.376,85.85786792102243
820.494,71.43167391019091
820.613,58.641230394640196
820.731,51.80528261469671
820.85,50.06953991792895
820.969,53.7613638533318
821.087,64.57257726313892
821.206,71.52829545165366
821.324,83.46831146663472
821.443,95.90605768041593
821.561,103.48175090053346
821.68,110.96530161750789
821.798,100.35694376477575
821.917,87.5089272019178
822.035,74.40281375609032
822.154,63.22684788289429
822.273,62.93526402568298
822.391,60.237264325002414
822.51,62.1756732222157
822.628,62.339172907478755
822.747,62.26663232406925
822.865,62.49217930982782
822.984,64.6442758838028
823.102,72.50181459664603
823.221,76.48935662585055
823.339,71.43557333419268
823.458,68.97919263993752
823.576,61.126275149145755
823.695,71.16080354580009
823.813,78.9745527216754
823.932,85.96492527417409
824.05,90.94057921195422
824.169,85.59026315500009
824.287,72.03474960535775
824.406,61.340143844327855
824.524,51.755979170560806
824.643,60.921277506117676
824.761,63.358921690842365
824.88,72.59253859924459
824.998,78.98459437859519
825.117,82.66280137533289
825.235,84.58516421622642
825.354,88.99930194889491
825.472,88.9987210668447
825.591,91.8803912670456
825.709,90.57678008196518
825.828,91.93377495749081
825.946,87.85440619665273
826.064,85.82698548776258
826.183,83.16320114250894
826.301,79.04313974097832
826.42,69.45468007104932
826.538,72.29046282536282
826.657,74.32105077448165
826.775,72.7949287668905
826.894,70.06274615323876
827.012,64.95740336642677
827.13,61.37240689996128
827.249,52.873723588066014
827.367,42.64015329577889
827.486,46.15043062057616
827.604,46.66287857202582
827.723,54.134023290402226
827.841,53.95570660152741
827.959,53.33228226229595
828.078,59.91067533216726
828.196,63.075620268403114
828.315,66.25823022011458
828.433,70.91337325591465
828.552,75.42729860328723
828.67,77.2501041810543
828.788,69.92171062535058
828.907,57.3886249112783
829.025,42.490305868082736
829.143,26.109509742049433
829.262,9.761197795756082
829.38,-9.053052830308669
829.499,-24.232554369868645
829.617,-33.868250566060304
829.735,-32.73891796877695
829.854,-32.69524697902326
829.972,-23.42468656457631
830.091,-12.844529220251347
830.209,-0.4119676835912288
830.327,3.604684155932945
830.446,8.300711697390057
830.564,18.13792765440542
830.682,29.646685718416293
830.801,39.25154846820463
830.919,55.28574047669551
831.037,63.38502691928874
831.156,59.18665251043371
831.274,47.7359947092737
831.392,30.084633366407438
831.511,27.056990755537036
831.629,23.459651380483862
831.747,22.847780102462256
831.866,31.408575742800018
831.984,38.60263065786619
832.102,36.55278595886125
832.221,27.30273359006039
832.339,10.053254116877644
832.457,11.941420685059313
832.576,2.4188041231630093
832.694,0.5682260643376833
832.812,3.2898217178465567
832.93,11.93664517625729
833.049,22.76465313924868
833.167,19.835249013817368
833.285,17.001243276058702
833.404,16.32916460744709
833.522,9.525617481004506
833.64,12.322809092526803
833.759,7.331377757914925
833.877,10.55427736879932
833.995,17.690714489368922
834.113,21.559213509276667
834.232,32.3930647697213
834.35,40.899001361678344
834.468,48.21639768191828
834.586,63.35234826636753
834.705,61.89507593031402
834.823,56.90581441926072
834.941,47.44719660830529
835.059,35.57420597813383
835.178,28.508077538852614
835.296,22.93105599204325
835.414,23.130512502524788
835.532,32.831845131254155
835.651,34.18883760592414
835.769,38.09708907259215
835.887,47.93063277011771
836.005,55.81504613669514
836.124,61.395090958455924
836.242,65.97605614623558
836.36,75.0919332770539
836.478,80.85031293021507
836.596,86.0224279773511
836.715,91.33307116301532
836.833,97.35367105863628
836.951,108.36301554300185
837.069,110.31261976762707
837.188,116.40421533424367
837.306,122.42308362813296
837.424,127.2523415324118
837.542,131.8305171856084
837.66,135.31258894270104
837.779,139.92279922793225
837.897,144.0533558335098
838.015,141.3735228286978
838.133,142.357759087955
838.251,143.02857543379213
838.369,147.18077706101457
838.487,153.3173942726526
838.606,160.53453096481002
838.724,167.7265594318592
838.842,164.0103627906832
838.96,155.01884147418258
839.078,148.50004743040935
839.196,147.0046300100127
839.315,146.45986194026563
839.433,147.01985577528035
839.551,143.067295497741
839.669,146.9943888998552
839.787,145.48078966127684
839.905,144.2693549248632
840.023,141.96008469061425
840.142,142.46120406675513
840.26,134.13548361605632
840.378,124.22794498353929
840.496,122.30135873197446
840.614,119.10983741547452
840.732,117.35987454053299
840.85,116.79779045347024
840.968,118.57510030580134
841.087,122.06150106722338
841.205,113.25785853860225
841.323,116.90789566366071
841.441,119.92330075408705
841.559,119.79584870165641
841.677,122.5116866925158
841.795,128.59635585220641
841.913,145.9580812889531
842.031,151.19166819756128
842.149,156.60534168625588
842.267,166.26230521824033
842.385,166.15563238658848
842.504,170.96930587528294
842.622,176.8288668098649
842.74,183.08150133752054
842.858,188.62071595175627
842.976,185.04218164824312
843.094,178.53291141399404
843.212,172.80026455636832
843.33,164.80008523121023
843.448,163.08994919609532
843.566,160.67331965448693
843.684,166.66794552413393
843.802,172.57858870979805
843.92,175.96975137598173
844.038,180.70117378242497
844.156,187.3330290893011
844.274,194.72332595461887
844.392,202.5612418675556
844.51,203.32210150343616
844.628,213.46737672373223
844.746,211.84814977952593
844.864,205.16918257557944
844.982,198.42787770929527
845.1,178.93072868716706
845.218,162.011934643394
845.336,141.7043960108764
845.454,121.74577512727663
845.572,100.74646160298425
845.69,84.93762426916805
845.808,77.7538951604601
845.926,76.19873748032367
846.044,68.14228109888839
846.162,70.48755631918473
846.28,68.61724712389645
846.398,70.79542277709278
846.516,62.58325912727855
846.634,56.38542415704913
846.752,47.6699678808769
846.87,31.295123844667955
846.988,12.977191971313452
847.106,-2.36836780235417
847.224,-12.918721326900046
847.342,-15.341298998431714
847.46,-17.42558617436342
847.578,-20.293990340751687
847.696,-18.58306016627528
847.814,-14.601952543127858
847.932,-13.865382793681094
848.05,-9.628122091901965
848.168,-0.027041422339719734
848.285,3.7325894659591192
848.403,1.8501387647073138
848.521,-0.5628868565488201
848.639,1.3846930929599224
848.757,6.196091456095029
848.875,9.377479553160656
848.993,30.88772318102562
849.111,43.38785401409218
849.229,52.17254565464391
849.347,59.14936891966621
849.465,68.44504593703289
849.582,70.31895759364366
849.7,67.08495070837185
849.818,69.12540269755905
849.936,74.44810576899742
850.054,72.65738892701606
850.172,77.28312230148487
850.29,83.73656130365939
850.408,95.00645052228414
850.525,105.53954320411246
850.643,111.63800385130878
850.761,118.59274155478238
850.879,118.29379960457624
850.997,119.37494423445659
851.115,118.029249037497
851.233,116.53550189248534
851.35,123.1473824531013
851.468,133.5800422344966
851.586,141.05426045745037
851.704,147.89990725183281
851.822,158.68040253106363
851.94,175.52929607869274
852.057,204.08338443151655
852.175,236.46128230814986
852.293,269.8404788860819
852.411,301.69196983630854
852.529,321.84346078653505
852.647,334.1269863687962
852.764,352.4828063233517
852.882,363.73299857227937
853.0,384.5812427692589
853.118,397.1861969229485
853.236,404.11928960477655
853.353,407.6281398623622
853.471,400.29716328012114
853.589,383.74973648143
853.707,368.19018847061756
853.824,346.83496946413425
853.942,331.97065954856
854.06,318.55310287973896
854.178,296.63684491221676
854.296,286.0643098884177
854.413,266.17056274340683
854.531,244.39369871527913
854.649,221.58912905944578
854.767,201.9152953343483
854.884,184.25444862223765
855.002,163.70182701835205
855.12,142.00721407247516
855.238,122.7472331612303
855.355,96.59028255301565
855.473,74.9995346577386
855.591,52.71696454556536
855.708,29.003955099928987
855.826,12.389582358271197
855.944,-7.9157606148590345
856.062,-8.444377396959093
856.179,-11.75850771921223
856.297,-14.811864249843058
856.415,-11.320378468984998
856.532,-13.759425933586943
856.65,-23.31577976717712
856.768,-20.452484195487983
856.886,-31.61527248808828
857.003,-26.487780114241044
857.121,-30.86061530699218
857.239,-29.71552988271986
857.356,-25.28863734537818
857.474,-26.636242135576286
857.592,-28.095591750406168
857.709,-22.137433592006964
857.827,-16.985295146670506
857.945,-7.897851742217949
858.062,-6.746409660986764
858.18,3.549467912050435
858.298,7.1773273846498125
858.415,11.106552452918944
858.533,12.9776415145496
858.651,21.064460871609253
858.768,26.73859944652639
858.886,29.54422772675209
859.003,23.071741782995566
859.121,19.08407002949591
859.239,11.964083411844816
859.356,0.7539055398553032
859.474,-8.262356791215293
859.592,-8.55710873823033
859.709,-15.555834956069166
859.827,-21.321384204007302
859.944,-26.203172460082293
860.062,-20.595622394256036
860.18,-11.85766894371042
860.297,-4.324389464262278
860.415,7.252380752151753
860.532,9.08060254400478
860.65,8.000140628595812
860.768,1.86275325898153
860.885,2.9342468818555725
861.003,2.021758365858337
861.12,1.161607531239257
861.238,7.958166936848941
861.356,14.06259377625885
861.473,16.550017097784245
861.591,25.232693652835962
861.708,23.466558985300097
861.826,25.871090148208193
861.943,18.65841105642685
862.061,6.812619281226025
862.178,-2.861934046842028
862.296,-13.895556944819702
862.414,-10.178986040361194
862.531,-6.674539533693485
862.649,-9.82343897194789
862.766,1.3578410088009143
862.884,4.650764771476494
863.001,9.067208743142219
863.119,6.800482337728991
863.236,9.261670258651645
863.354,11.034690074347578
863.471,6.000817348170055
863.589,4.278416974271307
863.706,10.271550276678939
863.824,12.5361023242511
863.941,22.58428167398199
864.059,25.041413598103233
864.176,35.50555387633333
864.294,32.50310163133983
864.411,33.644141633618204
864.529,28.18890759587996
864.646,24.945980651462033
864.764,22.528649667617845
864.881,27.927205617811214
864.999,27.99552166829668
865.116,34.54780291867335
865.233,40.18380694266736
865.351,49.295766040057785
865.468,55.48513451869562
865.586,63.49008741291772
865.703,74.86387147597091
865.821,81.34501484638335
865.938,84.51966471030232
866.056,76.197466934728
866.173,65.556573068888
866.29,56.07265722493914
866.408,60.57605893511074
866.525,59.94788704780815
866.643,69.0334396410328
866.76,70.45086203104053
866.878,80.9608437420379
866.995,80.48047132003542
867.112,78.482349980284
867.23,82.38379574009963
867.347,86.61944063411434
867.465,82.9572500302935
867.582,81.1527577041214
867.699,75.82073263553596
867.817,75.7511868065818
867.934,77.03466175204736
868.051,78.89799729877257
868.169,79.38708089264485
868.286,84.00754023929188
868.404,85.60353118286972
868.521,90.83652558485
868.638,98.38418414590613
868.756,109.66016637526951
868.873,120.94343031690241
868.99,136.47604490788598
869.108,149.03030452051445
869.225,168.65209660067535
869.342,179.7561397630875
869.46,202.3476288129453
869.577,219.93219145587685
869.694,238.24835583041016
869.812,246.00348124390456
869.929,255.35254605133827
870.046,264.1700091271702
870.164,261.16582718135714
870.281,256.4698703437693
870.398,260.04144597371373
870.516,252.2502510408879
870.633,244.8166318656377
870.75,232.13193043930528
870.867,229.2004757662196
870.985,230.45083927495205
871.102,224.29427637675803
871.219,215.83901217986266
871.337,207.33872633794573
871.454,193.8107348683232
871.571,176.59096850692578
871.688,153.78245755678392
871.806,143.61723664993224
871.923,135.0104573015219
872.04,125.87380782324138
872.157,110.67135747915992
872.275,99.67410194027325
872.392,94.23788536242539
872.509,86.78088956379833
872.626,79.14986779114534
872.744,87.02447372411996
872.861,91.13977229778718
872.978,82.07561553336387
873.095,69.35158628149185
873.213,56.452977178219896
873.33,44.810088927189824
873.447,28.640341255706964
873.564,20.05852496628549
873.681,23.86108480760062
873.799,21.0063638245012
873.916,16.66236541662134
874.033,14.44539707527545
874.15,11.88022834014095
874.267,11.092095633407208
874.385,2.8458045099050446
874.502,1.7277683411035398
874.619,-0.27782046835615093
874.736,0.005858873390985231
874.853,0.8561701817221614
874.97,-0.14803568425488134
875.088,-3.837185878368823
875.205,0.8570928409517222
875.322,5.83678963773904
875.439,10.800848285740795
875.556,16.576506923633332
875.673,24.550161447821054
875.791,20.951483970260853
875.908,19.906407351391813
876.025,14.598000726195814
876.142,10.47556853193469
876.259,12.188030551725097
876.376,5.683913902828234
876.493,7.303780006315577
876.61,3.5251985828787555
876.728,-0.5162212630896654
876.845,-2.6471675061730457
876.962,-5.441570659696378
877.079,0.4914919770577546
877.196,6.898041269977604
877.313,6.28925509557424
877.43,10.449117971403755
877.547,5.7146182778681105
877.664,2.4877355377150825
877.781,-6.9049025469192955
877.898,-11.959027655637831
878.016,-9.872984074976339
878.133,-0.4398504047830153
878.25,5.104317696943511
878.367,8.137649887579467
878.484,13.220096074027172
878.601,19.571577856393347
878.718,17.809764176519874
878.835,13.311051414378271
878.952,6.94057474386294
879.069,10.080423204547728
879.186,0.8076527575548975
879.303,-5.210562481284476
879.42,-4.632164148394963
879.537,0.8980756889677877
879.654,1.3045994968185073
879.771,-2.3206378414478355
879.888,-5.615614557500998
880.005,-6.900593325069141
880.122,-8.057130696542403
880.239,-9.085226671920793
880.356,-9.984881251204314
