wavelength_nm,intensity
792.446,170.04942201471036
792.565,156.79063413592237
792.684,144.06864279393096
792.803,131.88344798873612
792.922,120.23504972033763
793.041,101.27747396276192
793.16,89.60994149522949
793.279,83.93375101903905
793.398,83.06968175496982
793.518,92.09911898440699
793.637,103.55193283722079
793.756,118.63937872466667
793.875,132.39175967704762
793.994,145.45842634371422
794.113,151.54240902769692
794.232,144.08093716622506
794.351,129.8445735298614
794.47,112.16059084587869
794.589,102.13548262077049
794.708,91.46535275064062
794.827,82.23504972033761
794.946,76.56145664674456
795.066,80.39695448224248
795.185,83.06362114890922
795.304,88.47141335670145
795.423,86.53894582423393
795.542,84.89046097574905
795.661,80.49565578094379
795.78,72.8073440926321
795.899,61.76734442782863
796.018,56.44145709367348
796.137,51.03833969978101
796.256,50.50344655217965
796.375,47.022924757208045
796.494,40.86517266307302
796.613,47.199021678031954
796.732,53.36386614052243
796.851,50.33792059440925
796.97,47.5885481202092
797.089,42.11019114726554
797.208,39.08830529828952
797.327,39.65385983888604
797.446,45.795891790107724
797.565,61.29137605832521
797.684,70.67751980752148
797.803,75.63358064110984
797.922,79.52787744126213
798.041,66.24711757673691
798.16,58.45420569814574
798.279,50.82673058680227
798.398,52.64570438595368
798.517,50.590135364879416
798.636,42.701437940722485
798.755,46.39159337416115
798.874,46.22430867509849
798.993,39.033631321276935
799.112,45.75416892233196
799.231,51.543120102349974
799.35,53.35359977761368
799.469,54.047212125775275
799.588,49.25351569258171
799.707,51.32365437590418
799.826,50.77599674713724
799.945,47.49044263315484
800.064,55.4504144583013
800.183,56.00865811019234
800.302,52.193736446208725
800.421,60.308684912094975
800.54,64.11107926542715
800.659,68.54464244992799
800.778,75.84660390282696
800.897,78.93211513927585
801.016,79.97087312897165
801.135,74.37326748230387
801.254,66.9583458183202
801.373,68.90706051797277
801.492,71.08607824792854
801.611,75.483277796066
801.729,81.61987128359719
801.848,93.9555989702625
801.967,94.24457341017464
802.086,91.08939200593093
802.205,83.1749032423799
802.324,79.30543612385055
802.443,65.78054281049495
802.562,52.1884810801295
802.681,37.874105462626325
802.8,28.875841426766478
802.919,9.882781351744484
803.038,0.06280062268312836
803.157,-8.03871995088674
803.276,-7.556305013061735
803.394,-15.312482727635002
803.513,-19.646472305664773
803.632,-23.233454943626242
803.751,-27.889888025850475
803.87,-35.48094375936726
803.989,-32.424467101848855
804.108,-29.555565658795715
804.227,-21.119954019151866
804.346,-22.334534471410024
804.465,-18.12778361909907
804.583,-11.125859534798728
804.702,-9.645689744902308
804.821,-9.258094700902571
804.94,-9.773068442375745
805.059,-18.02401133985482
805.178,-12.245212216474744
805.297,-18.269353266148073
805.416,-16.951151672354513
805.535,-17.893296697532662
805.653,-25.81257889024879
805.772,-24.986985057855772
805.891,-19.636801526356294
806.01,-18.44551593013659
806.129,8.65765844876922
806.248,23.463773218907352
806.367,37.973498207258174
806.485,50.381705320538416
806.604,65.20101432404167
806.723,77.80557408969236
806.842,94.07069466893165
806.961,97.65266843314701
807.08,96.41992358264383
807.198,89.80536055032236
807.317,74.44534297254631
807.436,69.57796608741091
807.555,65.13742902911534
807.674,63.93585300978094
807.793,66.66068391685363
807.912,70.3439563823679
808.03,69.99173101238434
808.149,79.1408043436996
808.268,90.96866555380272
808.387,112.40431897169807
808.506,128.59668234630354
808.624,145.40463013649355
808.743,148.49482900893486
808.862,152.64909714544538
808.981,141.2111574897482
809.1,127.51867237950574
809.219,109.21233445541057
809.337,92.75621298153207
809.456,80.3321261396884
809.575,70.18855877836421
809.694,60.45797843002705
809.812,62.678047432339184
809.931,69.5812333177681
810.05,80.90086941964707
810.169,95.68717218819268
810.288,103.23191651517995
810.406,115.56280802831448
810.525,117.61577746352685
810.644,109.65143088142335
810.763,108.86630507854063
810.882,114.74611434059298
811.0,118.63025260697412
811.119,126.66677182573625
811.238,125.5188754600827
811.357,131.56578428923433
811.475,123.5295762352689
811.594,119.99293528087063
811.713,119.89958436976227
811.832,122.91965337207361
811.95,134.98560982027232
812.069,137.99615501305988
812.188,146.14176514091236
812.307,150.02676920815898
812.425,150.65809362172604
812.544,144.93443968031485
812.663,139.65840478652262
812.782,139.05249976286018
812.9,149.61629170889466
813.019,147.57835205319768
813.138,162.20015265724103
813.257,166.04013507946632
813.375,174.74418676576107
813.494,169.508844512662
813.613,176.08129446735506
813.731,172.69530286360657
813.85,171.13182208236884
813.969,165.44453177732157
814.088,170.10702502205777
814.206,167.54614164341731
814.325,177.14369982321824
814.444,178.75078181254287
814.562,186.02885947286302
814.681,179.53117955742556
814.8,176.89237410086253
814.918,170.9124431031741
815.037,163.53424370721757
815.156,161.88678024199703
815.274,165.9968925343523
815.393,166.90527322497604
815.512,168.6283725303183
815.631,159.32809521228393
815.749,161.9992464656781
815.868,164.77256222123674
815.987,162.57877840969587
816.105,167.81876083192117
816.224,175.13926273466575
816.343,184.16625814390363
816.461,175.969011128899
816.58,158.05141779354784
816.698,154.6957292201014
816.817,152.58592809254225
816.936,134.47107989522425
817.055,123.31688356836594
817.173,112.92864664193198
817.292,107.91145839580585
817.41,102.51174830134835
817.529,100.72551112962294
817.648,102.76410781719633
817.766,106.60231741419068
817.885,102.16881327475943
818.004,107.33357753359658
818.122,110.98319027728229
818.241,117.29600648417134
818.359,127.07375775599537
818.478,133.47228824859852
818.597,138.08640315678608
818.715,138.52482090424843
818.834,151.504434640058
818.953,178.32324527887937
819.071,245.0740028252262
819.19,332.14112286351394
819.308,425.71832833746555
819.427,497.6396019310638
819.546,523.9512639906291
819.664,485.8533145161613
819.783,415.0370911519436
819.901,323.93906974425204
820.02,252.3170374662926
820.138,192.26253765586551
820.257,157.9643149017153
820.376,127.90387401905767
820.494,99.30884101949088
820.613,78.5523161579442
820.731,75.79958049368703
820.85,69.21241515508487
820.969,73.17446172669068
821.087,75.22668947465712
821.206,89.008520887862
821.324,92.98164120171818
821.443,107.05930732153408
821.561,116.57400451614069
821.68,128.23979045487803
821.798,124.30881340728939
821.917,115.55590446793651
822.035,101.61011318225613
822.154,91.67277054899873
822.273,87.33307343581295
822.391,88.31514866487227
822.51,87.46089595432119
822.628,87.98674715337488
822.747,93.22479178344412
822.865,95.22970344506237
822.984,98.7336302779631
823.102,97.93735089618406
823.221,101.44908939671429
823.339,99.72001319499236
823.458,103.07232227465549
823.576,98.99952312921022
823.695,109.12845558549631
823.813,117.13444431883879
823.932,120.8668399785884
824.05,114.03646507556749
824.169,109.36453173098825
824.287,101.27701397082456
824.406,94.69339231455703
824.524,90.02665377517252
824.643,88.15212302799569
824.761,91.37889098211761
824.88,95.37362430420492
824.998,95.99952645746095
825.117,97.40897839426688
825.235,96.2236251362676
825.354,99.14130218129873
825.472,98.34555931290993
825.591,90.88488137958613
825.709,96.2371904592494
825.828,97.28473763415082
825.946,93.85349693026436
826.064,93.93740774152946
826.183,94.84209777357367
826.301,94.5918094506394
826.42,90.89476788095183
826.538,87.15963107316905
826.657,97.61843365932563
826.775,98.59671676496302
826.894,96.54296523856578
827.012,101.65717908013403
827.13,97.25710720741662
827.249,87.27435135201532
827.367,70.4438212023187
827.486,62.5940583310702
827.604,58.71205439969137
827.723,55.44714726217815
827.841,56.55171360579306
827.959,62.325324795221476
828.078,64.2112836691083
828.196,75.4018193452527
828.315,79.89696167948263
828.433,88.43799145960003
828.552,100.6301034907997
828.67,103.56800932581965
828.788,97.08029216319902
828.907,83.82147571884055
829.025,58.0723498018106
829.143,36.4225220349258
829.262,5.998074063049738
829.38,-14.901973297722073
829.499,-24.398094589615464
829.617,-35.07769451207265
829.735,-34.22185679915163
829.854,-22.175296504704853
829.972,-15.728773180448483
830.091,-1.611911229894805
830.209,6.456741617990124
830.327,14.196847145874473
830.446,18.658426230414978
830.564,30.698900564804134
830.682,41.3506871275349
830.801,56.16019480666265
830.919,65.55911580245646
831.037,70.67745770356895
831.156,62.509656654930566
831.274,45.42156332526752
831.392,27.487288680583816
831.511,23.425615968657375
831.629,23.976045615008278
831.747,19.90016253132186
831.866,19.013379344292314
831.984,21.09184068619887
832.102,23.586700177040925
832.221,20.649458829056144
832.339,14.689763395679801
832.457,20.873041056924905
832.576,22.509852128454526
832.694,14.808589943976745
832.812,11.194246708598463
832.93,10.586686387324775
833.049,9.055461817832247
833.167,5.233681205592914
833.285,3.682895572689796
833.404,6.675135148976194
833.522,14.280158503282262
833.64,22.097311004194452
833.759,23.234743333664127
833.877,23.00740005782073
833.995,31.46944017201873
834.113,42.89913786054751
834.232,55.43456693073737
834.35,70.13173324570988
834.468,84.0770046042208
834.586,93.40239458717672
834.705,85.26359735763982
834.823,72.9859210195618
834.941,61.818523353093866
835.059,52.18329541111473
835.178,42.237103346815935
835.296,37.14505005831757
835.414,35.79937398926369
835.532,44.675726185099094
835.651,53.4972395571387
835.769,56.058040604864374
835.887,64.2988674753733
836.005,84.2942188951986
836.124,94.9054025386687
836.242,108.57632644187929
836.36,122.42906852690814
836.478,127.42986255998906
836.596,135.6289249913384
836.715,131.1344809291813
836.833,137.6582186852059
836.951,149.0036014628755
837.069,155.9870794786404
837.188,169.82423714808513
837.306,176.66572382185882
837.424,185.71673430515642
837.542,191.0378746585838
837.66,192.81442626742236
837.779,199.89487398015723
837.897,198.78744290501334
838.015,195.84711139696904
838.133,196.19942058156545
838.251,193.58203279646494
838.369,199.8252510719704
838.487,197.9264780054845
838.606,192.2822503935442
838.724,187.9704903140717
838.842,177.93838391425297
838.96,165.71406972222675
839.078,167.79624903669423
839.196,167.06717293990636
839.315,170.74762065264218
839.433,180.21941035671995
839.551,183.6210701906677
839.669,187.71277331465868
839.787,191.89971453388773
839.905,190.11869038515147
840.023,184.0077961065452
840.142,172.89517022620726
840.26,160.29250105582605
840.378,160.0283600239731
840.496,152.28543111333238
840.614,149.58232904251838
840.732,141.14329623577365
840.85,139.15015087491633
840.968,135.21761157466523
841.087,141.78463937398124
841.205,147.7966888183191
841.323,160.8537599076787
841.441,164.3930820792894
841.559,173.78781550631106
841.677,174.69510304588675
841.795,180.90368928676108
841.913,185.0906305059903
842.031,193.88536393301155
842.149,196.24459952453503
842.267,202.31032862255216
842.385,209.84185858637022
842.504,224.14828032508012
842.622,238.73348994257802
842.74,243.62605886743518
842.858,250.41386588753025
842.976,245.94885905481138
843.094,234.53753187577217
843.212,222.54438651491478
843.33,212.74777795059416
843.448,210.43082306592723
843.566,206.31300238039444
843.684,209.22461892429874
843.802,220.11805365002118
843.92,219.40109876535394
844.038,224.28500968155254
844.156,222.08493791376839
844.274,234.16105662217456
844.392,243.95059524400077
844.51,256.4821252078182
844.628,265.8214473794282
844.746,276.72873491900356
844.864,272.55810038065687
844.982,260.032487487332
845.1,235.91813000526236
845.218,222.5890539084741
845.336,194.52231547402363
845.454,176.83133461533052
845.572,154.45550527178898
845.69,142.5965590451305
845.808,125.39475567561485
845.926,112.01199992514694
846.044,100.47426581970066
846.162,94.44475682247965
846.28,74.84133151246198
846.398,67.71402357114854
846.516,59.31014506532017
846.634,47.70511809582415
846.752,37.67021077785333
846.87,24.988085780824623
846.988,21.110282680715304
847.106,15.13611116838154
847.224,9.594259930043597
847.342,8.661108969284099
847.46,1.3140455846258847
847.578,-5.45931473690847
847.696,-9.075156972776956
847.814,-15.085097299525142
847.932,-13.205053441278547
848.05,-17.71281714206823
848.168,-7.579130495277134
848.285,-3.1671469331668485
848.403,3.1049568276452946
848.521,13.835661824050806
848.639,25.52050336829614
848.757,36.901418853803676
848.875,44.94408781971998
848.993,48.495061888510406
849.111,62.40976103966341
849.229,65.30532869561549
849.347,66.26964738344773
849.465,70.29674113679661
849.582,73.92902969534038
849.7,76.9474654400313
849.818,86.35464577346677
849.936,94.87178281685895
850.054,103.65039172172293
850.172,110.90778850537488
850.29,120.36431948816087
850.408,125.13167298176928
850.525,133.21937279572387
850.643,134.02482152742712
850.761,145.12810575696568
850.879,146.34740730252128
850.997,145.7805616619296
851.115,146.35051255813437
851.233,148.02089635477208
851.35,149.78738404751374
851.468,155.98504057142424
851.586,163.69698280962035
851.704,182.18641422530573
851.822,199.87497984012512
851.94,225.8406017320007
852.057,251.77851799617048
852.175,277.02033036423654
852.293,309.8656059357657
852.411,338.96802436443795
852.529,368.9726072952749
852.647,388.9590084079301
852.764,413.0354528106288
852.882,441.25821755964773
853.0,463.2385580662425
853.118,479.9937903477289
853.236,496.2078970880898
853.353,501.34148434793104
853.471,495.16338329608396
853.589,475.39653765549224
853.707,453.15090413611256
853.824,434.94596325742555
853.942,415.3912388289551
854.06,402.9395447035148
854.178,384.56230945253344
854.296,359.3954638119418
854.413,340.0892242319564
854.531,306.8686989376854
854.649,276.30271909795977
854.767,252.58608990758492
854.884,223.0434866912359
855.002,190.17620815021152
855.12,159.53576943602695
855.238,129.4338588603706
855.355,105.36658031934637
855.473,79.29843597745644
855.591,63.00931456315503
855.708,44.17727968159663
855.826,22.95120937402907
855.944,4.388901826971513
856.062,-0.5360361320736444
856.179,-9.063872014981914
856.297,-13.936087380687221
856.415,-16.87155499219876
856.532,-21.388990860911758
856.65,-26.36292607045693
856.768,-30.771421295766316
856.886,-41.77984361104383
857.003,-42.64816814308989
857.121,-47.66808879084256
857.239,-47.41499898264623
857.356,-44.77868260215027
857.474,-43.1436099158685
857.592,-38.62338331655282
857.709,-33.15916823002147
857.827,-30.587261327441368
857.945,-18.66352487639484
858.062,-10.778029790832782
858.18,-0.14115925615872604
858.298,9.893902423713879
858.415,11.143069629447023
858.533,0.20241025966682447
858.651,-1.1198689100637649
858.768,-7.583428760651162
858.886,0.2658510779129566
859.003,8.439964394997835
859.121,8.77630149810582
859.239,14.519210632862452
859.356,7.586743823975017
859.474,-3.4099314092766004
859.592,-9.049817807201398
859.709,-20.450591320245877
859.827,-19.794930213053565
859.944,-20.047880316831588
860.062,-24.027894218552895
860.18,-20.24629027694246
860.297,-17.97384186675463
860.415,-12.300076693169252
860.532,-7.428943108194927
860.65,-5.621421404068554
860.768,-3.5051762234565222
860.885,1.551622732180232
861.003,5.804790465911067
861.12,16.958649376521254
861.238,30.21003110668391
861.356,26.591826590993392
861.473,28.011773094220143
861.591,29.609611752183184
861.708,27.48055410079796
861.826,24.909521115644658
861.943,17.278074657087572
862.061,19.333798576105558
862.178,17.024254169219326
862.296,3.8972756823857075
862.414,-2.038930880989286
862.531,0.6455259692522679
862.649,-3.401795863859692
862.766,-6.549415032473963
862.884,-11.429893210674916
863.001,-5.490522855512206
863.119,1.6330554951437466
863.236,9.362649492099225
863.354,14.002954577237322
863.471,21.573300277011313
863.589,20.927955298778784
863.706,17.780706451894375
863.824,19.974669609594034
863.941,21.583379085483447
864.059,28.204697861936673
864.176,37.68621639238407
864.294,39.704609075678704
864.411,41.51623520479872
864.529,41.9820867575005
864.646,37.949627297098345
864.764,40.91799613990676
864.881,42.07343421621145
864.999,44.492075755719924
865.116,46.82413720864861
865.233,52.403817709196616
865.351,57.68826011450682
865.468,72.61426096137535
865.586,84.1878808558628
865.703,103.44461763346703
865.821,111.56369207340887
865.938,107.99445482503907
866.056,103.32305307450459
866.173,97.72784180016063
866.29,92.82094221412825
866.408,93.3504062644593
866.525,92.76038979530982
866.643,93.90716986295672
866.76,92.4452919219455
866.878,90.49163908915938
866.995,89.32673084511768
867.112,93.53151957077301
867.23,94.32765028777041
867.347,97.47616195714896
867.465,94.63506323691745
867.582,97.806951529673
867.699,99.63598267957141
867.817,101.86155062600659
867.934,107.89231337763655
868.051,120.05034885653913
868.169,125.22570035275774
868.286,129.5889306368553
868.404,129.89588386467602
868.521,129.45478514444483
868.638,132.49940070992793
868.756,130.53102926242389
868.873,140.3713158235778
868.99,159.88346385659295
869.108,181.4042698982659
869.225,204.34585516071792
869.342,226.69263522836462
869.46,251.93984819644407
869.577,279.12732090478323
869.694,292.85072434905305
869.812,302.9334351526303
869.929,307.85424119430274
870.046,314.50491736584536
870.164,319.79715197894643
870.281,315.5465294491905
870.398,314.5106255341531
870.516,320.8600030043972
870.633,319.7314583967193
870.75,305.14057612670365
870.867,292.91852502551893
870.985,295.17439600225623
871.102,286.9904401391665
871.219,273.9554020249943
871.337,262.4320522225104
871.454,259.11216562348966
871.571,235.64595867814862
871.688,204.98234913540495
871.806,184.35077422469598
871.923,179.20058459537233
872.04,173.40537332102676
872.157,163.68721832373748
872.275,159.04871700610192
872.392,152.77991265816328
872.509,142.75526415438037
872.626,124.7436026635846
872.744,119.17609701694462
872.861,113.95837492008829
872.978,104.66099914357812
873.095,96.3592943627391
873.213,92.03334715765773
873.33,83.04852549370193
873.447,75.43772980377214
873.564,61.54901203592034
873.681,56.909644917419
873.799,42.89107254294005
873.916,33.77662912507335
874.033,27.270532975326724
874.15,26.047434779724846
874.267,12.795326870147914
874.385,2.308110437811435
874.502,-5.919158755308521
874.619,-10.580266149480735
874.736,-5.309670547904517
874.853,2.6157063415580186
874.97,5.713740318944638
875.088,17.250312164798398
875.205,21.375475208791116
875.322,23.5593588530904
875.439,19.258195706776057
875.556,4.244054963159516
875.673,0.09765928783006755
875.791,-12.591840938380102
875.908,-17.8875938698205
876.025,-18.500565567932846
876.142,-7.880751979691858
876.259,3.969599927632233
876.376,8.875899905354647
876.493,7.911456824765962
876.61,10.86437189468913
876.728,6.378811184656884
876.845,10.644683437529705
876.962,8.11382938971747
877.079,10.431753763058017
877.196,11.530185054044512
877.313,2.86162886890696
877.43,-0.9854805742490362
877.547,-6.765778842760073
877.664,-4.156277154365964
877.781,2.0290187695267674
877.898,4.918592520049392
878.016,1.4054245048358283
878.133,0.3132083875939191
878.25,-8.904036475417016
878.367,-8.837809694891968
878.484,-6.864314776626074
878.601,2.019699134664327
878.718,12.789725519512338
878.835,12.115960521615715
878.952,12.881591173367983
879.069,14.221165035501034
879.186,1.3823558301917593
879.303,-2.826297409809219
879.42,1.9811716549715903
879.537,-1.391562778442561
879.654,8.28811728317616
879.771,2.7755529454885033
879.888,5.7192264310151675
880.005,-0.8117120579466359
880.122,-12.281866314712424
880.239,-28.691236339282195
880.356,-50.03982213165594
