wavelength_nm,intensity
792.446,0.3633278873231729
792.565,0.33750662028480166
792.684,0.31399358155718976
792.803,0.29278877114033725
792.922,0.2738921890342437
793.041,0.2471642792007707
793.16,0.22932427694494265
793.279,0.2158429799850348
793.398,0.21757101708233578
793.518,0.22871449948982986
793.637,0.2514708324775034
793.756,0.27094760579705485
793.875,0.2938062369762112
793.994,0.3141445215357985
794.113,0.31835178539138653
794.232,0.307972530649675
794.351,0.2878197869275809
794.47,0.26202860759258684
794.589,0.2418106738465087
794.708,0.22386335878196842
794.827,0.2091043373519727
794.946,0.20047718987026408
795.066,0.19711338463268552
795.185,0.20022445316189502
795.304,0.2020928995416233
795.423,0.20547977201845774
795.542,0.2148791705535162
795.661,0.20937713252925982
795.78,0.2002214443915572
795.899,0.19522588270748475
796.018,0.18326301184468308
796.137,0.1814567467186011
796.256,0.18365515491203346
796.375,0.1928579804516938
796.494,0.19207971185766837
796.613,0.18366016952926295
796.732,0.16720420162878918
796.851,0.16302100793590302
796.97,0.15051856425920246
797.089,0.15315023538126754
797.208,0.16297186468705382
797.327,0.17714417590119289
797.446,0.18722455945602348
797.565,0.19583866893293525
797.684,0.19780540181036266
797.803,0.20903112394042128
797.922,0.20326331120299895
798.041,0.1953913650760597
798.16,0.1898391808795079
798.279,0.1814637671827224
798.398,0.17687438949424322
798.517,0.1730051108399266
798.636,0.18134742806299708
798.755,0.19447669889339092
798.874,0.19681852513958825
798.993,0.19704418291491765
799.112,0.2026655688292372
799.231,0.20163255767995103
799.35,0.19310670546627928
799.469,0.20000882462102454
799.588,0.2022623936039819
799.707,0.20325428489198588
799.826,0.20149114547407798
799.945,0.200278611027974
800.064,0.20113811642111792
800.183,0.19974405283130447
800.302,0.19980723700839673
800.421,0.21107909361696728
800.54,0.2070373121299543
800.659,0.2121993591060476
800.778,0.21599843311915068
800.897,0.2313842817028396
801.016,0.22809569572370422
801.135,0.22817893836971465
801.254,0.22954492010304262
801.373,0.22546502752508513
801.492,0.21366864195430424
801.611,0.219045314547822
801.729,0.2233608941355681
801.848,0.23571289929538242
801.967,0.22969937031371246
802.086,0.22478404250531278
802.205,0.21327649888695369
802.324,0.19945220210854503
802.443,0.1749531556348053
802.562,0.15806586209710038
802.681,0.13326052515105238
802.8,0.11409754876307708
802.919,0.09729170133476572
803.038,0.08150070607340862
803.157,0.07574746248382494
803.276,0.07041507158384237
803.394,0.061609950673843325
803.513,0.057454420810741966
803.632,0.055324920175956104
803.751,0.048832785302164596
803.87,0.04904320319513981
803.989,0.049229788785045164
804.108,0.05107962592718744
804.227,0.052221404209924265
804.346,0.057194563694463296
804.465,0.07235345775542415
804.583,0.08626955468237325
804.702,0.09129109766555252
804.821,0.10045513765617328
804.94,0.09225270512224679
805.059,0.07665797321846039
805.178,0.07280041648607027
805.297,0.06948691388294359
805.416,0.08107910549677008
805.535,0.09376529227089295
805.653,0.09034879238017166
805.772,0.10004527311663097
805.891,0.09232155875927187
806.01,0.08855496168902262
806.129,0.1025193979909839
806.248,0.12897474662936487
806.367,0.15913783563706374
806.485,0.18350814212654082
806.604,0.1938548691769938
806.723,0.21192549832227395
806.842,0.22217926063503957
806.961,0.2310600207503559
807.08,0.2331429657493015
807.198,0.23031960925086054
807.317,0.21614315934473027
807.436,0.19651882928042247
807.555,0.18749138834558837
807.674,0.17531677363749215
807.793,0.1878120698518639
807.912,0.2008018073250689
808.03,0.2220265492126322
808.149,0.25238692076897984
808.268,0.2821154505544045
808.387,0.298705683198422
808.506,0.32060840133541896
808.624,0.32141161601738377
808.743,0.31931437609378
808.862,0.30054955142261575
808.981,0.28785341652264645
809.1,0.27890320069314695
809.219,0.26441183282500036
809.337,0.24554972457958257
809.456,0.24000443384894335
809.575,0.23140624414895725
809.694,0.22481891595801862
809.812,0.21748140102954006
809.931,0.21964558282760266
810.05,0.22918225487654176
810.169,0.2421128198664366
810.288,0.25089228471371444
810.406,0.26494411811613533
810.525,0.26303442487691564
810.644,0.25806180343389007
810.763,0.26053588857673843
810.882,0.2651050807980905
811.0,0.27347535287943747
811.119,0.28604185665846743
811.238,0.3032278258293542
811.357,0.31798571733769543
811.475,0.324183657235204
811.594,0.33281970402971744
811.713,0.3356087071345818
811.832,0.3434584619475026
811.95,0.3469234354549096
812.069,0.3422898021366019
812.188,0.346205088271222
812.307,0.3336493626536796
812.425,0.3378093621091013
812.544,0.3461024090851137
812.663,0.3489385495919356
812.782,0.36150505337096583
812.9,0.36622668995609653
813.019,0.3619240213749388
813.138,0.36804874786089636
813.257,0.37046566636732875
813.375,0.3761952410155984
813.494,0.3820802687979841
813.613,0.38436480140955653
813.731,0.38343596730043666
813.85,0.3801763391030243
813.969,0.37924951084079606
814.088,0.38211674197444134
814.206,0.3883628221973541
814.325,0.3825517567535497
814.444,0.3868040251659959
814.562,0.3978661437761637
814.681,0.41046674695235585
814.8,0.4218177075149455
814.918,0.4247210438926442
815.037,0.4218014067433956
815.156,0.4039703038003728
815.274,0.3899242339422103
815.393,0.3817402516253856
815.512,0.38398667314601376
815.631,0.39040224743128543
815.749,0.3966393013431853
815.868,0.396449621813701
815.987,0.39579759457565267
816.105,0.3854803940893798
816.224,0.39347456987851226
816.343,0.3926149374871606
816.461,0.3975120856753258
816.58,0.3996100745259592
816.698,0.39434760820706694
816.817,0.3752758889614545
816.936,0.3552373515139857
817.055,0.3391613646013031
817.173,0.32099428230390015
817.292,0.3062702361963025
817.41,0.30581377903020524
817.529,0.3043062580927955
817.648,0.3024597490306686
817.766,0.29834362421044963
817.885,0.30165715627752415
818.004,0.3092993059371416
818.122,0.3109178973806297
818.241,0.32334298895378655
818.359,0.33252161733253627
818.478,0.33826824167938574
818.597,0.34394459847965453
818.715,0.3341806358866206
818.834,0.3362814503214152
818.953,0.36688986231041876
819.071,0.448829212391905
819.19,0.5799416478666339
819.308,0.7341338594042258
819.427,0.8719284441635351
819.546,0.9511965744328639
819.664,0.9203750997447803
819.783,0.8073591801667112
819.901,0.6529276203678303
820.02,0.5109535499988653
820.138,0.40679134397934635
820.257,0.3418394185702305
820.376,0.3071630775965537
820.494,0.2923713029015854
820.613,0.2745020888676164
820.731,0.25618456805332634
820.85,0.24889318760335932
820.969,0.25486747557242995
821.087,0.2686625605726986
821.206,0.29008588130255075
821.324,0.31556502444765877
821.443,0.33842653739894457
821.561,0.35070720799589117
821.68,0.3479049128898134
821.798,0.33896171752443505
821.917,0.32374824477523423
822.035,0.3014079980194043
822.154,0.2872506036587455
822.273,0.27943670009346067
822.391,0.27688313000196835
822.51,0.2711693481324171
822.628,0.2619322961973879
822.747,0.26731285348648115
822.865,0.2762176837644984
822.984,0.28599305159356464
823.102,0.29020018845094453
823.221,0.298277606886087
823.339,0.3065856977137886
823.458,0.30424274154593745
823.576,0.2943537893710675
823.695,0.29184133914085775
823.813,0.29473063459031357
823.932,0.30080521490397627
824.05,0.29446360295728635
824.169,0.29607517393665433
824.287,0.29705189437476187
824.406,0.28643181100782455
824.524,0.28065083326739787
824.643,0.2808934137431003
824.761,0.2781663378954664
824.88,0.2830855503994425
824.998,0.28888733553581847
825.117,0.2982494989051713
825.235,0.3098140821617402
825.354,0.30097218206440024
825.472,0.2988929947628241
825.591,0.30075028198644055
825.709,0.2896949298439793
825.828,0.28593584577050546
825.946,0.2802832422311553
826.064,0.2808126588123877
826.183,0.2894477026834559
826.301,0.2802387326049124
826.42,0.27928382248619954
826.538,0.28887164363088147
826.657,0.29422010736970655
826.775,0.29537835695152415
826.894,0.29250585720423355
827.012,0.2817142739280461
827.13,0.27977449298545065
827.249,0.26354405586209884
827.367,0.2526852767150354
827.486,0.24060794558119247
827.604,0.23486608185515623
827.723,0.2315643308730164
827.841,0.23177582072189545
827.959,0.23512144633923976
828.078,0.2517116789832572
828.196,0.2627727946699787
828.315,0.2741197435387842
828.433,0.29035594420639554
828.552,0.29516082343753697
828.67,0.29870603082061664
828.788,0.2806994162745596
828.907,0.2611292440763303
829.025,0.22607076068682191
829.143,0.19004924537926401
829.262,0.15392367384480177
829.38,0.1287252969928789
829.499,0.10104645397067025
829.617,0.09642921601692346
829.735,0.09305306221316625
829.854,0.09684618886107389
829.972,0.10300382637468
830.091,0.12029031984601393
830.209,0.1338235939492196
830.327,0.1503374253448025
830.446,0.17100113317771165
830.564,0.19313845783669714
830.682,0.2119876379892078
830.801,0.22764990692065043
830.919,0.2328427708901857
831.037,0.2343157917988447
831.156,0.2196838680130982
831.274,0.208108854890482
831.392,0.18559395281989108
831.511,0.17838566838076234
831.629,0.16732761747320773
831.747,0.17148528235222224
831.866,0.17151908089861317
831.984,0.1851383091485126
832.102,0.1944654136468696
832.221,0.19032677249370256
832.339,0.18576493433015207
832.457,0.19917745346309235
832.576,0.18954809372833198
832.694,0.18736300827018054
832.812,0.1829071347921294
832.93,0.17400819782443705
833.049,0.16689181406558523
833.167,0.1557322161983991
833.285,0.15170395225045968
833.404,0.15594923563375293
833.522,0.1602311724799333
833.64,0.17378101936385984
833.759,0.1796860572582467
833.877,0.177587051396344
833.995,0.18735764451677347
834.113,0.20218598057492154
834.232,0.21877344435719392
834.35,0.24413548536772367
834.468,0.2593028095505894
834.586,0.27031301605016267
834.705,0.2625605307236719
834.823,0.25273700848137937
834.941,0.236062516180083
835.059,0.22373068239957228
835.178,0.20734302620380582
835.296,0.2070693410134583
835.414,0.20085935194677604
835.532,0.2102197493778299
835.651,0.20808162950153786
835.769,0.21714315574571091
835.887,0.2324629242923558
836.005,0.24706961426895943
836.124,0.2481669254291698
836.242,0.26978104152233917
836.36,0.2933087355503028
836.478,0.3080458055748745
836.596,0.3155447770903212
836.715,0.323778891491619
836.833,0.34138231672459785
836.951,0.34677013438640586
837.069,0.3566691017079121
837.188,0.3753175731715278
837.306,0.3906594060339817
837.424,0.396525618179488
837.542,0.4030918708902389
837.66,0.41239911337865887
837.779,0.4238646471226749
837.897,0.4206012471400723
838.015,0.4220596107408088
838.133,0.4244486872993487
838.251,0.41402742268329384
838.369,0.417227864309574
838.487,0.40921762765748415
838.606,0.40863704789268773
838.724,0.4020439420696674
838.842,0.40256557517192487
838.96,0.4001165490274
839.078,0.40773988305013853
839.196,0.40670598188779117
839.315,0.4206005962177982
839.433,0.413873098653026
839.551,0.4062269232118014
839.669,0.3979479030762083
839.787,0.3987924775280486
839.905,0.39653500976169265
840.023,0.3951340386181429
840.142,0.3922026062961363
840.26,0.38287853992990617
840.378,0.3661890037769211
840.496,0.35856188388116905
840.614,0.3533718679589757
840.732,0.35088372780006094
840.85,0.3509540453516599
840.968,0.3565243950806236
841.087,0.35592074807657215
841.205,0.3517386702175179
841.323,0.3510537864143483
841.441,0.36621108136275615
841.559,0.37709993412537557
841.677,0.38444646127704457
841.795,0.3892906944311709
841.913,0.4044018549010669
842.031,0.4150520118835602
842.149,0.4187428830748916
842.267,0.4324419273329483
842.385,0.4557259109635564
842.504,0.4588451157907196
842.622,0.4663821983971116
842.74,0.46611352782399434
842.858,0.4745492298379207
842.976,0.47309911544552286
843.094,0.46892606389748215
843.212,0.4703031906991013
843.33,0.4663247062995667
843.448,0.45357064174832884
843.566,0.4526570913994918
843.684,0.44469599799625276
843.802,0.4480057582781382
843.92,0.43557563799992904
844.038,0.4521380286960551
844.156,0.4588978456318672
844.274,0.4719269370280561
844.392,0.48929266940435523
844.51,0.5021302024223756
844.628,0.5056024363024985
844.746,0.5111717831080168
844.864,0.49312328568582575
844.982,0.48098501613037575
845.1,0.45136278214239545
845.218,0.4271804049250252
845.336,0.3886253825351956
845.454,0.35219455200380134
845.572,0.3060489035136106
845.69,0.27944571982867833
845.808,0.2549602089997828
845.926,0.24472473595208433
846.044,0.2355097375105982
846.162,0.24574292907045509
846.28,0.2321401405531172
846.398,0.22737812221146664
846.516,0.20145366696855316
846.634,0.18417040013559088
846.752,0.1679773110883317
846.87,0.15587314093004315
846.988,0.14408689750410777
847.106,0.14388317264457723
847.224,0.13003231522563588
847.342,0.1319671403554904
847.46,0.12561653986442878
847.578,0.11229045214343322
847.696,0.10751733251073722
847.814,0.10423514272279387
847.932,0.09931241814159034
848.05,0.09771623334428942
848.168,0.10139634016100074
848.285,0.11458920981997545
848.403,0.12181881919186657
848.521,0.13106680323171538
848.639,0.14922028162847498
848.757,0.16254976318175746
848.875,0.16908960893233016
848.993,0.18494360472505908
849.111,0.1967006582412499
849.229,0.2059092832813862
849.347,0.21096881402579742
849.465,0.22660417250731824
849.582,0.24023970163769673
849.7,0.24780052345620485
849.818,0.25027251171017084
849.936,0.2645810024727542
850.054,0.2635126709626616
850.172,0.267167105959354
850.29,0.2762593918797649
850.408,0.2897234211008928
850.525,0.29859305801631186
850.643,0.3002667192073346
850.761,0.3037316016727507
850.879,0.30952627530301324
850.997,0.3012068072789995
851.115,0.30989090335692565
851.233,0.3193903761963758
851.35,0.3273192709195326
851.468,0.3327218014824449
851.586,0.3444497702187048
851.704,0.368077425640674
851.822,0.3943457784957216
851.94,0.41958011727803723
852.057,0.4628921511728614
852.175,0.5028794938444976
852.293,0.5452648264753021
852.411,0.5856403005205051
852.529,0.6341745567981774
852.647,0.6808905128684164
852.764,0.7264420748179551
852.882,0.7471181265386148
853.0,0.7753632415055489
853.118,0.7834796829130906
853.236,0.7899402977114366
853.353,0.7905398278918907
853.471,0.787654199097811
853.589,0.7773369075695463
853.707,0.7659023593225388
853.824,0.740220280602949
853.942,0.7205076022334087
854.06,0.686100089534411
854.178,0.6507287674038947
854.296,0.6162329974416568
854.413,0.56604247847439
854.531,0.5274317136135882
854.649,0.4861571840804521
854.767,0.44719439309013587
854.884,0.40384581787085966
855.002,0.3571224052560998
855.12,0.30819356398378606
855.238,0.273395914064329
855.355,0.2326439076465106
855.473,0.209196342364405
855.591,0.17588489977612037
855.708,0.1520936243213284
855.826,0.13170421118888084
855.944,0.10593661347513636
856.062,0.0911402803068572
856.179,0.08841937616930547
856.297,0.07995253809720364
856.415,0.07133502334540888
856.532,0.057575154715361954
856.65,0.04682311217640078
856.768,0.04431305053653626
856.886,0.027844177500995073
857.003,0.031216368598909083
857.121,0.02794044460749332
857.239,0.022444554115145524
857.356,0.028804708307054058
857.474,0.031346221697844866
857.592,0.031938926765850445
857.709,0.039406947298745075
857.827,0.03934799738475632
857.945,0.0466263392029725
858.062,0.054747628509489644
858.18,0.06392873177325568
858.298,0.07727923883900588
858.415,0.08935782084098075
858.533,0.09942321587040773
858.651,0.11533040848940529
858.768,0.11793103061807957
858.886,0.11720234555013145
859.003,0.12238885688909741
859.121,0.11175981767844993
859.239,0.09472791114296697
859.356,0.08844093424269214
859.474,0.08288067006541244
859.592,0.07687739006386476
859.709,0.06681310120163689
859.827,0.06553016941654893
859.944,0.062333075259078
860.062,0.058654737660447515
860.18,0.0541056444020839
860.297,0.06166546020834423
860.415,0.06783062851293653
860.532,0.06970817202552784
860.65,0.08023172864499778
860.768,0.09455913448718264
860.885,0.09598978579968238
861.003,0.09896794600354236
861.12,0.10171187258676222
861.238,0.10803020560038734
861.356,0.10736126611177918
861.473,0.11543496141798057
861.591,0.12324343689469641
861.708,0.1275091430498305
861.826,0.12218606224285322
861.943,0.11272866846098721
862.061,0.10329104012856812
862.178,0.08910089190140265
862.296,0.07483938473828536
862.414,0.08041148805954386
862.531,0.08591155857623212
862.649,0.09088807177139825
862.766,0.09444794868279749
862.884,0.09774481312586702
863.001,0.09613748945974429
863.119,0.0959934903698818
863.236,0.09425446031435411
863.354,0.10302361170247579
863.471,0.10581365483559851
863.589,0.10477947759219203
863.706,0.10027977712079016
863.824,0.11171653020488118
863.941,0.1175920727814074
864.059,0.13372150466890664
864.176,0.1340723706605737
864.294,0.13550644249586902
864.411,0.13285352154547667
864.529,0.12018420929627749
864.646,0.10572191416671406
864.764,0.10962248836386773
864.881,0.1101914551731461
864.999,0.11991964708642266
865.116,0.12883909250054623
865.233,0.15087607373759554
865.351,0.1726160144776417
865.468,0.1853193762438464
865.586,0.20442439836528775
865.703,0.22070619098649547
865.821,0.22156502685651563
865.938,0.2231008360525243
866.056,0.21584802709203277
866.173,0.21332500510244784
866.29,0.20651247953471016
866.408,0.20558711459445794
866.525,0.20729843539350018
866.643,0.2078563942297471
866.76,0.201376839246051
866.878,0.20232192653241865
866.995,0.1992793901978523
867.112,0.20394632639198776
867.23,0.20874865725132052
867.347,0.21404944106327012
867.465,0.21373485650157542
867.582,0.2222851122782698
867.699,0.20951321559494046
867.817,0.21045830288130773
867.934,0.20602872342104905
868.051,0.2146120756714586
868.169,0.21661223842292177
868.286,0.22281966502997297
868.404,0.23341889340665942
868.521,0.24992433795630373
868.638,0.26048846401238385
868.756,0.28610847683844864
868.873,0.3061993727072174
868.99,0.33347420921903154
869.108,0.3579498863933137
869.225,0.3809271959394078
869.342,0.4047439524097277
869.46,0.4459323458866363
869.577,0.4750224738355457
869.694,0.5001189606228457
869.812,0.5083673364423213
869.929,0.5118107060324476
870.046,0.5231019515868114
870.164,0.5226900834508637
870.281,0.5129089044832347
870.398,0.5301214100622448
870.516,0.5251271847019396
870.633,0.5218810549078536
870.75,0.5132221472761973
870.867,0.5110651923443686
870.985,0.5102260788204642
871.102,0.4883105290807833
871.219,0.4560658707716863
871.337,0.43649615897198646
871.454,0.417284490842476
871.571,0.3917694488554279
871.688,0.3692992824501595
871.806,0.35599583634049886
871.923,0.33195509181893695
872.04,0.3042647088777124
872.157,0.2870799490323839
872.275,0.276329946016007
872.392,0.26145993348383645
872.509,0.24868903972395323
872.626,0.23580481561468247
872.744,0.22698644315512628
872.861,0.21271718176705473
872.978,0.200683436739914
873.095,0.18853435551649356
873.213,0.17817348679712852
873.33,0.1597711778884658
873.447,0.14512481728473217
873.564,0.1264928389069565
873.681,0.11910864697504964
873.799,0.11180804708013538
873.916,0.10231983822237262
874.033,0.09483976362822012
874.15,0.09210585100734561
874.267,0.08270286391842332
874.385,0.06806340398586305
874.502,0.060399478819346444
874.619,0.06999550294881046
874.736,0.07479564725070498
874.853,0.08053742969457184
874.97,0.08271895553597405
875.088,0.08190784244215216
875.205,0.07045099010112503
875.322,0.07340791820404095
875.439,0.07623328089793119
875.556,0.08607393102407149
875.673,0.0966291136004844
875.791,0.09638647315974325
875.908,0.09618900691763649
876.025,0.09195866375106408
876.142,0.08070650326956273
876.259,0.08753561449213673
876.376,0.07755325874831101
876.493,0.06774352126377117
876.61,0.0638193971307417
876.728,0.06413718069799375
876.845,0.06166650773755812
876.962,0.06105530536503304
877.079,0.060672084022592845
877.196,0.06527109200860098
877.313,0.049338639334607054
877.43,0.04730573213973744
877.547,0.051492799523882624
877.664,0.0610357429156551
877.781,0.060639715195717696
877.898,0.07686883631022084
878.016,0.08249906026871404
878.133,0.07869473145632022
878.25,0.06978766256222627
