wavelength_nm,intensity
792.446,246.46816153068517
792.565,184.1584964445154
792.684,133.7267207287341
792.803,95.1728343833413
792.922,68.4968374083368
793.041,48.121066685408394
793.16,48.4637105350006
793.279,55.90057229754782
793.398,82.64270081347944
793.518,115.71128219811152
793.637,150.519968291084
793.756,186.59012624552832
793.875,203.3174270571156
793.994,207.01875384272873
794.113,188.77808928635054
794.232,163.3659961585438
794.351,141.37121904805292
794.47,131.0136713747914
794.589,128.0942189396249
794.708,130.10030762999958
794.827,136.32630974028748
794.946,142.80252830079178
795.066,143.87268625523552
795.185,143.76275762959256
795.304,145.62945238057293
795.423,139.7333765687826
795.542,128.87020118989255
795.661,117.74728555126231
795.78,115.16462965289149
795.899,112.90058847313549
796.018,107.68070313753522
796.137,101.90064464176186
796.256,101.30586753126993
796.375,96.60113371082119
796.494,75.61568918080698
796.613,61.49522985297762
796.732,47.71934701218762
796.851,37.22277735711895
796.97,28.377475054868405
797.089,33.375295723632135
797.208,53.46695747166597
797.327,83.9178850531301
797.446,103.90431376419278
797.565,124.16423058465799
797.684,132.04886415291332
797.803,134.35860594627684
797.922,133.67267674396948
798.041,122.9070938620088
798.16,115.10081833935547
798.279,107.37159909375842
798.398,104.16965257543393
798.517,109.19974068914385
798.636,113.87398464700956
798.755,120.38459224123892
798.874,134.73762407789266
798.993,125.19022301411374
799.112,123.66186956938242
799.231,121.20624339737843
799.35,123.89866917342643
799.469,127.5339520923317
799.588,122.61165925366132
799.707,113.38806771369244
799.826,109.75408656333397
799.945,93.62313571600579
800.064,98.95971733620988
800.183,112.20019506031002
800.302,132.68915763289488
800.421,154.66296869032806
800.54,175.50344641442769
800.659,186.79673799134105
800.778,203.89522437344914
800.897,217.3911133529597
801.016,214.4601625056304
801.135,210.22098655007608
801.254,212.3367889495001
801.373,215.54523204156473
801.492,214.18744136739576
801.611,218.18895805253413
801.729,231.17748772468553
801.848,232.1928572236766
801.967,202.41601893046
802.086,174.99242739049026
802.205,144.11675862773149
802.324,109.25171787958416
802.443,70.92017692213926
802.562,48.21699059919307
802.681,32.28290991350345
802.8,11.671305057913813
802.919,-8.073651100377543
803.038,-11.680113832257334
803.157,-20.219938301760145
803.276,-26.625970531729585
803.394,-26.832463143998837
803.513,-24.786796995611375
803.632,-25.472295128764372
803.751,-26.690511499488153
803.87,-21.20450678365442
803.989,-11.779549860790386
804.108,-15.53994906570933
804.227,-10.01565411396015
804.346,-16.49407476401976
804.465,-19.48259452618928
804.583,-29.23848491303395
804.702,-18.606699215518812
804.821,-6.278918282029249
804.94,1.9066292410187575
805.059,4.34333418605862
805.178,10.73989896317278
805.297,-0.10523988802014683
805.416,0.46814175137077496
805.535,-6.270247207733868
805.653,11.288380800543596
805.772,17.952750203921582
805.891,30.8794964656458
806.01,50.545246963759226
806.129,78.71165575439252
806.248,123.83750513496086
806.367,165.58311490412007
806.485,205.44979631764693
806.604,250.71352556150475
806.723,272.0977875833487
806.842,281.012448844941
806.961,270.52234220445797
807.08,254.5889004146187
807.198,244.0589218282426
807.317,222.98435449727793
807.436,210.26476552129174
807.555,202.45946225959142
807.674,203.27234081607307
807.793,204.54842283575806
807.912,222.0738555047936
808.03,252.64084661538755
808.149,289.9983139164576
808.268,330.8376354673701
808.387,364.9694744714957
808.506,380.38178485742856
808.624,395.0441373267297
808.743,383.1877007105679
808.862,361.2297910262592
808.981,326.791187494583
809.1,296.5593360029851
809.219,271.51605473328374
809.337,252.56920806538093
809.456,239.01703431481377
809.575,247.6333760747591
809.694,254.01681740180408
809.812,258.4773150059054
809.931,277.072011744206
810.05,301.5446305604285
810.169,328.89690305630484
810.288,344.1123790153848
810.406,353.82915367576356
810.525,357.6247162149305
810.644,352.15274628656516
810.763,351.33359021101387
810.882,363.94906617009445
811.0,374.6173559819888
811.119,391.68218259041964
811.238,409.06389231573337
811.357,435.7555587510037
811.475,450.5710347100837
811.594,452.8609695436228
811.713,463.981207407465
811.832,464.19668336654524
811.95,453.3965749100413
812.069,441.31941017648074
812.188,441.4647562654311
812.307,441.9546910989703
812.425,420.5563142441979
812.544,399.0566386881268
812.663,391.36475533984776
812.782,372.3620494807463
812.9,371.02514448744563
813.019,386.07438668029204
813.138,414.28639943590906
813.257,439.1971134902275
813.375,447.538130574849
813.494,456.55620393652663
813.613,470.5266582505851
813.731,478.78802165555265
813.85,498.0043634154983
813.969,526.3852073399462
814.088,544.5314192297619
814.206,558.5953800373265
814.325,562.3052282907788
814.444,554.0852064143608
814.562,560.0894269621853
814.681,563.8442968606593
814.8,573.9013312612979
814.918,583.6466773502481
815.037,583.7582572054321
815.156,589.1165903073695
815.274,580.8931052274886
815.393,573.3207023986898
815.512,585.6063082278997
815.631,596.1629097281054
815.749,599.4857449945447
815.868,606.1107447631487
815.987,611.6950518910597
816.105,606.4689694085814
816.224,584.8316315148475
816.343,567.0358520626719
816.461,550.0591202295443
816.58,519.9057650197932
816.698,481.2796825373149
816.817,458.01550481674155
816.936,436.2205911654322
817.055,418.35814504659015
817.173,396.8056556377047
817.292,390.84883722449024
817.41,387.6184257376826
817.529,380.60619606905686
817.648,370.10565471211953
817.766,361.43628218635104
817.885,351.8898533835263
818.004,354.506195143472
818.122,359.4567360376167
818.241,376.1527314772159
818.359,397.91663814067215
818.478,417.70708704873357
818.597,401.38428747768
818.715,416.27518440567394
818.834,425.6564293130001
818.953,569.230574327901
819.071,729.7760412004711
819.19,929.5115508743274
819.308,1095.127014568357
819.427,1181.707639819139
819.546,1128.160372527874
819.664,997.8533854566704
819.783,790.4823616799699
819.901,648.9378844946002
820.02,495.3312095161673
820.138,404.74292034879323
820.257,349.3514596309939
820.376,319.4061905155382
820.494,289.2814067343581
820.613,278.7618177583728
820.731,274.6664712066302
820.85,280.38238006614296
820.969,304.66279109015807
821.087,336.47913285010384
821.206,375.83227114684604
821.324,399.92653498471367
821.443,408.3688507706331
821.561,404.06311460850054
821.68,372.24828753727706
821.798,329.9200405526338
821.917,293.4220965982937
822.035,268.4687413885423
822.154,241.56906583247059
822.273,239.30229070929897
822.391,235.74287489348652
822.51,242.07263656685137
822.628,250.06040689822493
822.747,257.0854066668279
822.865,270.6506661756907
822.984,283.305103173731
823.102,280.74741895965013
823.221,280.51181266764723
823.339,271.7151674146056
823.458,266.4570503000923
823.576,267.01711500376086
823.695,273.24384637409605
823.813,281.2082400820935
823.932,285.57956019701714
824.05,275.6842136452741
824.169,266.7750142796783
824.287,265.25282790109566
824.406,258.40423459610616
824.524,266.27252440799975
824.643,279.8447103237894
824.761,282.06624688892964
824.88,281.3198180861043
824.998,281.10585681574656
825.117,278.2988219523153
825.235,279.19828059537747
825.354,269.566137506838
825.472,275.50022818453226
825.591,277.25076907867685
825.709,271.9458987174105
825.828,271.92847424359
825.946,279.17252163124147
826.064,269.47977248209656
826.183,270.9212224671505
826.301,267.6120231015552
826.42,270.6474124805484
826.538,265.8092087859485
826.657,269.1095332298767
826.775,274.92760659155374
826.894,281.074684282235
827.012,270.24773599889033
827.13,270.66494355970144
827.249,265.13409917246076
827.367,250.87165305361822
827.486,236.60401212958098
827.604,238.88269155186407
827.723,247.54145755423357
827.841,266.79502875140827
827.959,288.6641843641673
828.078,316.129876773463
828.196,340.0102877974772
828.315,352.40758193837445
828.433,361.47846915286476
828.552,351.9735987915975
828.67,324.2791180407198
828.788,280.6569488296775
828.907,235.24402172260244
829.025,187.26568108377757
829.143,139.88723880224947
829.262,107.30295813689335
829.38,92.07478835417906
829.499,79.9331384064206
829.617,80.50170148327982
829.735,89.20472428818769
829.854,117.72891968803957
829.972,155.68306798119778
830.091,206.58272567720783
830.209,270.83746526558974
830.327,344.89300542653496
830.446,428.5291151309617
830.564,502.4067832769469
830.682,548.2957068341874
830.801,556.2417732485704
830.919,518.9185755936894
831.037,457.520053263484
831.156,383.58127119301867
831.274,313.00266228272653
831.392,267.2595512079325
831.511,241.52250073919902
831.629,234.3109913960066
831.747,230.36268551601762
831.866,220.9442497658988
831.984,218.10503479500062
832.102,222.38010553838808
832.221,205.4412317406879
832.339,183.65566584772455
832.457,174.3354527419511
832.576,168.35301415803468
832.694,162.17231751402443
832.812,150.80818339023415
832.93,157.99107585559085
833.049,163.23375272473479
833.167,150.1518038588804
833.285,134.86511255484976
833.404,140.78325176164336
833.522,145.27657147867126
833.64,154.62511650467013
833.759,165.42988184895916
833.877,199.08034482316475
833.995,223.8736573988549
834.113,250.41803835962395
834.232,278.98925914723293
834.35,309.9873197616819
834.468,317.74728513803564
834.586,330.6527050598441
834.705,326.8836661071938
834.823,318.80640204631834
834.941,297.15944101574587
835.059,274.2951639678573
835.178,266.9096747987566
835.296,265.2583847638549
835.414,260.57852330038173
835.532,283.6233371615837
835.651,308.3434756981103
835.769,332.101709472732
835.887,346.0408956283061
836.005,363.80519000898846
836.124,394.7132073333938
836.242,417.42382206039656
836.36,432.73010778307037
836.478,454.23206450141504
836.596,477.0431121288507
836.715,491.03684373897033
836.833,496.544861063376
836.951,517.0494151843185
837.069,537.7989909502828
837.188,548.779735547416
837.306,554.2903502744193
837.424,566.8788870793446
837.542,574.4656922825385
837.66,577.7823676156023
837.779,587.8548871045107
837.897,595.3784888445011
838.015,603.2605321429334
838.133,595.4655191643094
838.251,594.6869564021356
838.369,599.2209477525162
838.487,590.8951988431563
838.606,583.5988871632339
838.724,587.4688092495453
838.842,577.8010689981941
838.96,566.8138482273622
839.078,550.7235971535001
839.196,546.8013114476032
839.315,546.40196946465
839.433,560.7931036721731
839.551,564.2076145030728
839.669,568.0411729530204
839.787,568.047891576128
839.905,560.2372941819197
840.023,556.1461773071921
840.142,550.880168657573
840.26,539.9215193153132
840.378,542.064168674352
840.496,519.3098483364214
840.614,506.85855830152116
840.732,496.36138082073325
840.85,488.3784890542312
840.968,490.43888733101915
841.087,498.57893928746097
841.205,508.9804631053744
841.323,527.4200821613831
841.441,547.7358916935823
841.559,576.4958570699374
841.677,598.987424177894
841.795,618.5880821949416
841.913,623.3870086102576
842.031,636.8872337268724
842.149,654.7727402287686
842.267,665.4504545228725
842.385,679.1021947910024
842.504,694.6509047561019
842.622,707.7537272753136
842.74,710.8738658118415
842.858,704.7862121405769
842.976,702.9860043567583
843.094,697.3373117244548
843.212,677.5206537241861
843.33,665.6026970226189
843.448,667.1600649963766
843.566,663.7754416281431
843.684,666.946662415754
843.802,686.0113896968712
843.92,705.4362901381617
844.038,721.3945239127854
844.156,729.9189914536428
844.274,742.1447576957987
844.392,749.1021256695569
844.51,739.2681516519731
844.628,731.0947836949955
844.746,722.99933781594
844.864,694.2891733221661
844.982,660.0517361011196
845.1,626.4324806982545
845.218,584.8582469404108
845.336,533.0528443513986
845.454,503.88553700048135
845.572,474.28532921666397
845.69,451.65135519908034
845.808,422.98101754513334
845.926,408.9349223154288
846.044,397.9979179948151
846.162,368.7163249296126
846.28,331.04079247047054
846.398,305.2544375005058
846.516,272.0628877253463
846.634,242.9406020194507
846.752,212.07632497156385
846.87,186.764428876058
846.988,180.8334851615044
847.106,155.91867220445508
847.224,139.9931054090694
847.342,127.3397258290928
847.46,127.41589688747688
847.578,119.64786438641659
847.696,112.53891940451282
847.814,117.18534525071985
847.932,139.98377677170424
848.05,148.88488000552496
848.168,157.8204539072749
848.285,176.09504399239813
848.403,192.8591938014446
848.521,200.67428540988755
848.639,209.34825147720488
848.757,226.8083647306695
848.875,241.30657322222947
848.993,242.17274708175495
849.111,239.85883436119386
849.229,248.7622376579489
849.347,246.4249483140112
849.465,237.05302693544144
849.582,223.19106226682817
849.7,214.06675993587731
849.818,203.01864808111702
849.936,194.67529813111847
850.054,194.35532480449677
850.172,211.8076458501696
850.29,234.98291061878604
850.408,247.0707294999566
850.525,255.90053972311864
850.643,269.1684451843759
850.761,279.1203333296161
850.879,287.620273422908
850.997,286.664802260789
851.115,295.47816226750103
851.233,311.8032105859013
851.35,320.3646225406653
851.468,338.30698687638164
851.586,380.40865857140534
851.704,428.7839233400221
851.822,490.19035693980754
851.94,551.7656217084243
852.057,635.3711895073441
852.175,716.3256750551814
852.293,789.0334073562653
852.411,851.7549924712021
852.529,914.9726814822427
852.647,952.5115826144952
852.764,990.5924750887392
852.882,1016.1400342296502
853.0,1046.4425717255392
853.118,1054.0723819487011
853.236,1050.616477886149
853.353,1026.2991019621245
853.471,1003.3107303671043
853.589,953.8106704603958
853.707,913.212775055852
853.824,870.436524672953
853.942,834.9736942034738
854.06,798.2390022621332
854.178,744.1519293684117
854.296,698.6553326651663
854.413,661.6816796848645
854.531,597.5807539772902
854.649,537.1447633346512
854.767,478.8014133846531
854.884,424.5264617030531
855.002,370.26536283530606
855.12,297.2207141840092
855.238,251.44706120370776
855.355,211.88899263899066
855.473,163.62592495752844
855.591,129.85968291244342
855.708,95.29335891756168
855.826,65.55475731795167
855.944,34.062332374521226
856.062,4.148150222175879
856.179,-11.575100243708805
856.297,-17.13262382253138
856.415,-22.467527591870272
856.532,-26.94249690681559
856.65,-36.9387769669335
856.768,-37.7435540453666
856.886,-47.4415451062501
857.003,-39.02283458309645
857.121,-33.15135008937785
857.239,-14.145604735162939
857.356,-5.463072924908598
857.474,-5.381450478987524
857.592,10.327752939546759
857.709,35.83935064601263
857.827,59.56997294428247
857.945,89.81925814113687
858.062,128.40824049450714
858.18,177.93398649946437
858.298,209.4174297537026
858.415,239.48445932895612
858.533,269.7921815449023
858.651,303.76050982145443
858.768,317.3868467560151
858.886,325.64348672087874
859.003,343.28454227015766
859.121,351.997459291298
859.239,345.56492176698373
859.356,326.36701627730133
859.474,302.45828827679657
859.592,286.892417419149
859.709,253.10663314158813
859.827,215.82647656965514
859.944,184.81558406698622
860.062,161.68780844743412
860.18,140.55830122615023
860.297,123.77857755464974
860.415,121.38846427275949
860.532,121.36285315537125
860.65,133.31126801200904
860.768,130.59994260890664
860.885,136.0003055174926
861.003,140.87252989794007
861.12,141.98025211388537
861.238,142.72174056359702
861.356,144.5039216540013
861.473,139.6436785019814
861.591,152.81806738459363
861.708,151.1128025875522
861.826,159.24823043120344
861.943,147.35162364282013
862.061,142.78142378084385
862.178,127.06490357254717
862.296,127.19513661100362
862.414,127.25350817759877
862.531,132.55776719008134
862.649,126.84471018524798
862.766,133.5931250418866
862.884,130.2670810240665
863.001,135.5193919846015
863.119,131.23144320487665
863.236,141.23526931692663
863.354,152.44255863243973
863.471,158.1805838786887
863.589,167.2069208132494
863.706,190.2202707348232
863.824,215.52626134903778
863.941,217.7188320498326
864.059,216.5200607592854
864.176,205.31782626527496
864.294,197.01429306996562
864.411,182.65015381405016
864.529,175.43926131138124
864.646,182.47598785633136
864.764,197.26422955279668
864.881,199.58667038346124
864.999,211.5567302617448
865.116,227.68003689327514
865.233,254.40767252913457
865.351,274.8530570827429
865.468,286.9529870908967
865.586,296.3879820341154
865.703,306.1026306569878
865.821,303.6908723534534
865.938,288.32413569494054
866.056,274.9305592095879
866.173,270.3681515554041
866.29,277.2949213903977
866.408,282.0164964201963
866.525,298.0185909305143
866.643,320.360945181092
866.76,332.56910029747064
866.878,329.2101558467498
866.995,311.2079213527388
867.112,301.5823102353513
867.23,294.82942639069097
867.347,280.3432092126973
867.465,285.6240916018034
867.582,292.8045410904766
867.699,299.4888866830462
867.817,307.2632755656592
867.934,305.377924188532
868.051,321.740191859024
868.169,336.3786500057064
868.286,353.42836356364427
868.404,376.4053498488549
868.521,397.78147033319976
868.638,419.7619198218738
868.756,449.7666117347903
868.873,472.8518231282262
868.99,517.61582240045
869.108,560.9469212397734
869.225,608.1057257068021
869.342,651.720807230108
869.46,705.518572736098
869.577,747.9804075061572
869.694,788.9747098086839
869.812,805.871176613375
869.929,819.3053057557285
870.046,825.608698967346
870.164,809.1242133910846
870.281,786.2986022736977
870.398,767.6037270870465
870.516,737.5556051471485
870.633,715.6555351553023
870.75,683.6662876742789
870.867,656.683100799316
870.985,640.4574896819289
871.102,611.1392378719012
871.219,574.7473929882804
871.337,546.5235134726249
871.454,514.6909759483117
871.571,484.53809210365216
871.688,450.46659354037826
871.806,420.7076490896587
871.923,385.73312022335483
872.04,357.10318010163974
872.157,319.78752569421033
872.275,298.07966349457297
872.392,274.540632463767
872.509,257.12108195244144
872.626,239.98637992596446
872.744,221.43782508563487
872.861,198.20961656565157
872.978,174.40305306731352
873.095,145.8787406512265
873.213,118.95529403600524
873.33,91.5244881134247
873.447,74.62441812157994
873.564,56.91023984709277
873.681,38.750703874034116
873.799,34.195704238406925
873.916,24.587269167223862
874.033,23.738971821771226
874.15,15.576233778623907
874.267,2.6609182745633184
874.385,-0.6078310535606564
874.502,-9.613542214923122
874.619,-14.703049148982473
874.736,-14.44407932944494
874.853,-12.101367574693978
874.97,-11.400882290378728
875.088,-21.262211993046243
875.205,-25.568456403269398
875.322,-30.550607348310812
875.439,-34.24371148104073
875.556,-28.7734144650059
875.673,-24.779441791138094
875.791,-20.510800115922585
875.908,-21.076021623968963
876.025,-21.823722886091858
876.142,-23.34777385797706
876.259,-25.150080061022457
876.376,-27.06178387403522
876.493,-31.70286332379173
876.61,-31.142720452343475
876.728,-32.713193551582926
876.845,-20.748422617695972
876.962,-13.635958458701028
877.079,-10.313703299775591
877.196,-5.299053512785356
877.313,-7.8369411519582775
877.43,-18.119959785257116
877.547,-18.252255328225864
877.664,-28.01389287068858
877.781,-19.987496839859773
877.898,-12.181875963936843
878.016,-8.44958289098322
878.133,-15.016747313484903
878.25,-21.578343988333003
878.367,-31.32724975435852
878.484,-34.96948606691085
878.601,-40.69786467097779
878.718,-31.409469794325688
878.835,-23.28245385489216
878.952,-21.629373691820525
879.069,-26.375054467888944
879.186,-33.46602025808683
879.303,-37.27618001833658
879.42,-39.64385837283031
879.537,-41.432795666210986
879.654,-39.333864595034655
879.771,-42.887077362868226
879.888,-44.27935952460875
880.005,-49.17479045705818
880.122,-56.05771773689341
880.239,-64.9281413641145
880.356,-75.78606133872145
