wavelength_nm,intensity
792.446,210.29333601692267
792.565,176.59091177449835
792.684,148.29108493467146
792.803,125.39385549744195
792.922,107.89922346280969
793.041,87.05160441519068
793.16,86.58407194765822
793.279,92.5667559303422
793.398,104.20398536757159
793.518,115.94597670956296
793.637,141.89662606021227
793.756,161.8091801727664
793.875,175.44554380913002
793.994,179.3546347182209
794.113,179.76415852774466
794.232,168.54511090869704
794.351,155.35376891735507
794.47,142.96329272687888
794.589,133.1745481381343
794.708,122.53385549744165
794.827,119.56069532428145
794.946,120.97714554073166
795.066,125.91567367925984
795.185,138.6602624238486
795.304,144.79446155804777
795.423,147.39186415545038
795.542,145.00398536757154
795.661,129.8619940255802
795.78,118.88796805155424
795.899,112.53731870090492
796.018,105.44381220739851
796.137,94.68363904722534
796.256,90.41437497796134
796.375,87.79359575718213
796.494,76.907015670602
796.613,72.42303298661932
796.732,74.35809792168423
796.851,78.91134467493094
796.97,80.67757844116473
797.089,73.73645290003921
797.208,83.65420181778818
797.327,94.91913688272327
797.446,100.78407194765833
797.565,119.70614986973628
797.684,130.11221047579684
797.803,132.06545722904355
797.922,131.4386174022038
798.041,114.48104164462806
798.16,115.44208060566697
798.279,116.2948944584808
798.398,110.5269290905154
798.517,115.33558709917341
798.636,113.7477083112946
798.755,112.10008926367559
798.874,109.97195073553715
798.993,102.75636631995275
799.112,109.32346588705231
799.231,109.59705896064533
799.35,108.19186415545053
799.469,104.33039229397869
799.588,102.14078190436827
799.707,94.78840095198737
799.826,94.82995939354578
799.945,92.40571696930337
800.064,97.79099835458476
800.183,106.14424510783147
800.302,115.32692909051545
800.421,120.16848753207387
800.54,134.4524702160565
800.659,135.03342259700892
800.778,145.1780113415976
800.897,144.22563038921663
801.016,147.171950735537
801.135,145.42130138488773
801.254,150.28190744549386
801.373,156.24640960999596
801.492,160.93731870090505
801.611,163.73472129830765
801.729,162.15376891735522
801.848,157.8446780082643
801.967,143.20571696930324
802.086,126.55025885706058
802.205,115.65105845250118
802.324,87.50976003737941
802.443,66.40142346531906
802.562,48.90491886239032
802.681,29.85471969678769
802.8,16.258135691183142
802.919,7.818684515622188
803.038,10.16448277052421
803.157,15.572603240966934
803.276,0.3929291739913626
803.394,-1.974041833037015
803.513,-7.327756961140949
803.632,-15.88547030528197
803.751,-21.286588879982084
803.87,-19.551172171600463
803.989,-15.324293261143499
804.108,-9.263472855038678
804.227,-13.537140599344465
804.346,-19.778716058607216
804.465,-21.424446860143327
804.583,-16.181557217595167
804.702,-2.168528646518414
804.821,5.490627052627158
804.94,5.9029366322089265
805.059,11.8080790014438
805.178,12.820363182076234
805.297,0.8004367628755604
805.416,1.6975714527116854
805.535,12.553772467659623
805.653,21.135622364143597
805.772,32.02189400288323
805.891,39.11101072332641
806.01,56.241731683979346
806.129,73.10272030017562
806.248,99.85395834843257
806.367,130.03298656620112
806.485,160.37018500740606
806.604,170.35894941831768
806.723,182.7243372058527
806.842,185.82652153018432
806.961,183.62654135235127
807.08,173.38413693209395
807.198,176.26640783651175
807.317,167.54261813486926
807.436,162.0387418531401
807.555,149.49330712985267
807.674,147.6154048740977
807.793,153.99464547548564
807.912,174.22669992968753
808.03,192.18689291202787
808.149,214.48301663029906
808.268,244.0709152403453
808.387,264.9817575733351
808.506,274.20948302320795
808.624,269.6510612869335
808.743,256.8640681220876
808.862,237.9238282039948
808.981,215.59397789629148
809.1,203.6918332162939
809.219,197.49358464019247
809.337,184.48234905110397
809.456,177.325658916561
809.575,178.15078696383628
809.694,177.3594647946615
809.812,176.9239867813307
809.931,181.9413226208139
810.05,196.4642861659249
810.169,200.6487215725079
810.288,204.22190156783537
810.406,215.0652114332927
810.525,219.89033948056806
810.644,221.71546752784346
810.763,229.4315046660278
810.882,234.23065868732914
811.0,246.97093824975605
811.119,256.05753815850323
811.238,274.2506315737438
811.357,284.41255615781546
811.475,281.7762123436187
811.594,278.63770402725754
811.713,284.5814467931474
811.832,290.0853627192103
811.95,297.77109682709136
812.069,300.179774657916
812.188,317.9962446965328
812.307,328.5884723109071
812.425,339.69758304216464
812.544,341.67768944441775
812.663,347.439614028489
812.782,347.0491576601794
812.9,351.53575756892616
813.019,365.8015782568939
813.138,383.9184811959437
813.257,400.30205080166013
813.375,412.61549053724667
813.494,408.9349908788938
813.613,404.2986470646966
813.731,392.59736818556433
813.85,391.8588598692028
813.969,404.286585319075
814.088,400.8580337126702
814.206,399.95415743094054
814.325,397.9082898072195
814.444,388.56718408826026
814.562,378.8667710099936
814.681,368.2884358538049
814.8,367.8391050266206
814.918,364.1057915154536
815.037,354.4781057099143
815.156,366.3023679563229
815.274,365.91883799493917
815.393,365.5829270811744
815.512,370.9699598903533
815.631,373.401148543688
815.749,384.8773588420443
815.868,391.15356914040046
815.987,396.3380045469818
816.105,403.4159464470695
816.224,391.53458098784995
816.343,374.92161379702856
816.461,356.7588630564236
816.58,335.655852575559
816.698,317.6013269431792
816.817,304.07493983893784
816.936,296.3814531675968
817.055,289.04727385556316
817.173,289.375432205867
817.292,279.69839575097615
817.41,280.33045020517636
817.529,285.33739643426844
817.648,279.0179357369537
817.766,271.1296438708078
817.885,264.9400533033632
818.004,257.3686445541003
818.122,260.22927043687196
818.241,258.8803725101198
818.359,275.18633757761427
818.478,289.4671125573045
818.597,280.78695809393616
818.715,284.0272103794922
818.834,304.2486911241667
818.953,396.39793224484134
819.071,537.6137248446146
819.19,680.9316783977118
819.308,795.4243840853617
819.427,835.9688489327498
819.546,774.6928375787627
819.664,668.0276195004491
819.783,525.0193667262444
819.901,430.3670770067599
820.02,361.12821942708115
820.138,310.9478549730172
820.257,274.9378523440843
820.376,240.5716384000169
820.494,203.52403917456428
820.613,188.2643187369904
820.731,182.48425197907005
820.85,188.62539734236145
820.969,202.62022235933236
821.087,228.17089153214738
821.206,246.70770789110958
821.324,261.9856497911972
821.443,273.81337524106846
821.561,267.23330848314737
821.68,252.23073090271538
821.798,224.32165981578981
821.917,199.61258872886415
822.035,178.41953495795593
822.154,157.27150283206947
822.273,157.4464144291269
822.391,165.54426974912798
822.51,169.27935450635846
822.628,168.88543493458457
822.747,177.81705648835162
822.865,189.14781224125267
822.984,189.9573558729415
823.102,187.2439557816865
823.221,188.50285006272583
823.339,190.70373568575644
823.458,194.62669923086503
823.576,187.4145978409088
823.695,194.59730164575788
823.813,202.68130415190566
823.932,208.74625903900568
824.05,205.79130050619221
824.169,208.00603894307568
824.287,203.71601547519722
824.406,190.23291841424526
824.524,184.01995122342308
824.643,179.5931312187481
824.761,177.07020731796922
824.88,179.00442627433299
824.998,185.05206514411654
825.117,200.70316721736327
825.235,200.74907448541512
825.354,196.91619387467918
825.472,191.94132192195184
825.591,190.0616880644628
825.709,185.9318377567574
825.828,176.75869740576192
825.946,178.93880380801306
826.064,187.01354546920686
826.183,188.68000372504093
826.301,191.694752440726
826.42,180.15496792825144
826.538,181.5229878499548
826.657,178.00833601535973
826.775,178.23958385303774
826.894,181.43058417684162
827.012,183.4549300603645
827.13,181.83820196993506
827.249,183.70265821545928
827.367,175.2801672151133
827.486,174.285381842473
827.604,174.10791248714878
827.723,182.84386304524452
827.841,190.54431576784242
827.959,204.5304827761547
828.078,216.5045285723458
828.196,244.83008952005204
828.315,257.404135316243
828.433,268.23186076611364
828.552,260.369542925941
828.67,242.77908655762982
828.788,214.18776438845288
828.907,184.29168031451408
829.025,160.56962221460117
829.143,145.34270945205787
829.262,120.54907627532157
829.38,94.68872388162245
829.499,72.94433547444002
829.617,72.18814328895064
829.735,80.15249136259062
829.854,99.92420782942828
829.972,136.86581704137586
830.091,177.70298545563577
830.209,223.6199275688295
830.327,259.0908452782745
830.446,308.89855952451603
830.564,354.9010789655629
830.682,377.5399620429734
830.801,375.14940789094703
830.919,348.6740052540723
831.037,313.22024763884275
831.156,269.6236328807562
831.274,224.44779734344883
831.392,188.21828215246174
831.511,163.777511550219
831.629,145.3358751471103
831.747,128.15657640633918
831.866,124.90022138851172
831.984,123.14399453324025
832.102,128.12678757537017
832.221,127.10250048780895
832.339,118.09728754895693
832.457,120.75523263679538
832.576,120.54960464014229
832.694,120.7196539954488
832.812,111.68585228205146
832.93,108.44365295588614
833.049,106.34476359450714
833.167,97.72484724701626
833.285,94.3759022934906
833.404,99.09856239513238
833.522,104.16033007346229
833.64,113.71981913456193
833.759,112.25272869504752
833.877,127.34661892537693
833.995,133.37208538107083
834.113,155.31359589627448
834.232,181.52610208247373
834.35,197.0641493942141
834.468,205.07319237695006
834.586,209.37401025146116
834.705,212.14409219523634
834.823,200.7020529268903
834.941,191.55352015205074
835.059,186.94178391400771
835.178,191.08069702661388
835.296,188.60835472796452
835.414,190.18016827347085
835.532,195.12514199213723
835.651,205.5272585679462
835.769,207.39084700522693
835.887,223.22932721739926
836.005,239.96044812221234
836.124,271.6638633993199
836.242,297.00017910932803
836.36,323.37632165916307
836.478,342.265884122418
836.596,349.04895307917946
836.715,349.73158913550776
836.833,352.0956104732213
836.951,357.4224023737056
837.069,361.48166180665726
837.188,369.062999161687
837.306,386.80624127862154
837.424,396.619613265686
837.542,400.1048467246121
837.66,412.14505853851665
837.779,421.5445777117285
837.897,427.833274374118
838.015,420.0743519888882
838.133,415.72841661664546
838.251,420.7599704218918
838.369,413.3897926254066
838.487,416.37719058649714
838.606,419.3749781579775
838.724,423.32341508010745
838.842,424.4121117424973
838.96,413.1830594871383
839.078,401.31850939628157
839.196,397.4305826820481
839.315,394.34438756954603
839.433,397.57853877739024
839.551,393.5659367384811
839.669,393.73168967792714
839.787,394.6835898035204
839.905,383.4657929594169
840.023,367.9397710070883
840.142,360.30032914133994
840.26,353.38642840113255
840.378,351.0006661890636
840.496,348.50841047050096
840.614,341.0412629770466
840.732,338.4563665658434
840.85,328.1736346568047
840.968,326.80605426291766
841.087,330.26791109846795
841.205,335.4362614405119
841.323,346.6444386223826
841.441,352.7435248951625
841.559,367.55949428482575
841.677,385.0767623757879
841.795,398.7741170468368
841.913,416.25242409883833
842.031,431.20692162703074
842.149,436.962284956089
842.267,435.2708950383939
842.385,438.1838341250277
842.504,451.75911087399913
842.622,454.9456430342258
842.74,466.4196210818984
842.858,473.83905367502564
842.976,471.7190923287592
843.094,459.3515119348737
843.212,450.4099055669621
843.33,449.5089918397432
843.448,453.952666857113
843.566,456.14785702599806
843.684,472.6166402684763
843.802,489.71399493952606
843.92,490.07628467551103
844.038,498.1035094764311
844.156,507.4675308141476
844.274,512.4852318055439
844.392,524.310725004732
844.51,518.715438983141
844.628,508.4777287191256
844.746,493.68677170186345
844.864,463.5650787538652
844.982,439.7239052863864
845.1,417.711303247479
845.218,398.5151514250218
845.336,381.325060208625
845.454,350.4094278666872
845.572,325.95007258102646
845.69,301.20327140791994
845.808,282.9603663387094
845.926,275.7114006634383
846.044,271.8823484080806
846.162,266.9519974514242
846.28,249.37922225234348
846.398,230.77441242122825
846.516,211.1444943650049
846.634,187.76739016159547
846.752,161.35476123897647
846.87,141.9334922301739
846.988,126.2739305384932
847.106,115.54096858860169
847.224,105.85161958410433
847.342,103.20542277021764
847.46,99.91769051536419
847.578,102.66930394809953
847.696,96.813206463605
847.814,103.25958407187788
847.932,117.7510914994462
848.05,128.1849569951589
848.168,134.2952334124363
848.285,144.85539561186818
848.403,151.91252750826953
848.521,161.0501788851904
848.639,167.6380467123277
848.757,188.6596807732313
848.875,203.50122825404844
848.993,213.72719131928142
849.111,215.35055698191692
849.229,220.9730568436865
849.347,223.45529696519623
849.465,216.95485310402182
849.582,215.58947417791222
849.7,222.32452815223547
849.818,225.30546957244627
849.936,231.0266707329169
850.054,234.23272037823608
850.172,244.36690855169365
850.29,255.09763352168792
850.408,251.95822862155234
850.525,258.24566354825646
850.643,267.0162153580774
850.761,274.53914812027926
850.879,277.4638124842128
850.997,276.4672647269342
851.115,278.3564312553699
851.233,272.93044626865407
851.35,272.3806517581287
851.468,286.93475335149935
851.586,307.55205840807366
851.704,344.45248034776483
851.822,390.1624260969799
851.94,430.4905536643768
852.057,481.7130535261459
852.175,525.7883672407287
852.293,568.6264515180819
852.411,609.2359643668635
852.529,635.0125767827449
852.647,669.9762021856393
852.764,699.2800873287936
852.882,723.54847463645
853.0,744.1571216843663
853.118,760.312954879469
853.236,749.9120781178617
853.353,732.8081710532242
853.471,706.7033981877212
853.589,680.4609629845559
853.707,648.4029433658062
853.824,625.1639713661041
853.942,603.9492417906442
854.06,590.0713087519808
854.178,552.7379644579062
854.296,520.9232348824459
854.413,488.2955182939986
854.531,444.1007021384517
854.649,388.67818035519923
854.767,340.3370438533319
854.884,294.3214484770058
855.002,250.6729526677791
855.12,210.4703443044399
855.238,180.8521515255162
855.355,159.67118818382176
855.473,133.36355168464715
855.591,100.58493569990395
855.708,71.4720587420404
855.826,47.11667286295651
855.944,26.978903936459638
856.062,11.444251829947959
856.179,-1.4009819473519536
856.297,-12.646563483866702
856.415,-20.94792701874198
856.532,-29.415808891862355
856.65,-35.390674589813685
856.768,-21.85923383829431
856.886,-18.338675876237755
857.003,-18.27841610147893
857.121,-18.895692168590006
857.239,-21.18073660199142
857.356,-15.89748471380596
857.474,-9.586475521826646
857.592,-2.540057092936835
857.709,24.60593958573515
857.827,46.77377098435092
857.945,66.72076090317051
858.062,85.0651051318183
858.18,107.88099173066232
858.298,133.10504333032145
858.415,151.47490753554615
858.533,167.5867630827624
858.651,188.81809914945933
858.768,202.81047417719532
858.886,211.8426760447583
859.003,219.02119825864162
859.121,223.29322696603137
859.239,224.52369723186257
859.356,210.31693806046434
859.474,200.5690533479404
859.592,181.10688292113053
859.709,161.12090297051088
859.827,145.12539921036742
859.944,129.93422445455295
860.062,117.62443498012377
860.18,100.96572775677711
860.297,85.7200075464176
860.415,82.84138690315766
860.532,80.4718571689886
860.65,87.1992971317892
860.768,90.37089293874554
860.885,88.73469653790964
861.003,96.27339191196539
861.12,98.42161109554495
861.238,102.72740603670009
861.356,115.763936908591
861.473,123.96237254238662
861.591,125.03786445323863
861.708,116.49863774937195
861.826,110.05118593728028
861.943,111.64356096501538
862.061,112.61775417456867
862.178,109.2863196784943
862.296,116.42068604822055
862.414,114.20093986383418
862.531,100.15954865780273
862.649,83.64369857731221
862.766,82.24819481716794
862.884,83.65615426048682
863.001,89.98792322761528
863.119,89.31622899128052
863.236,100.87830098871189
863.354,104.95465870042892
863.471,108.41110299223244
863.589,114.26841308490174
863.706,127.9742080260559
863.824,138.7198298070371
863.941,140.38752951009647
864.059,136.5158352737619
864.176,133.03115402444047
864.294,124.11097493962106
864.411,121.39599065999626
864.529,118.6004868998518
864.646,118.59632513104924
864.764,126.77484734493068
864.881,132.68583709127967
864.999,148.44704328784525
865.116,165.2801109562725
865.233,184.5919665034874
865.351,200.7964627433431
865.468,208.47801526025512
865.586,214.88770630530576
865.703,216.0835445365036
865.821,214.10708839540715
865.938,210.28387900755763
866.056,207.44075619979486
866.173,203.48854248294117
866.29,204.9874110171698
866.408,209.82567349079233
866.525,215.57216107263983
866.643,213.9948391306778
866.76,217.37422714542583
866.878,213.5934420000008
866.995,209.96850101042008
867.112,206.92884140612068
867.23,202.70303461567406
867.347,199.99930574730524
867.465,192.72847731183683
867.582,192.61782203654164
867.699,196.16344381752373
867.817,190.75235564179593
867.934,195.74819387299468
868.051,208.00810136826277
868.169,214.33380972933173
868.286,229.8205570514396
868.404,241.56531303155603
868.521,256.2044413060446
868.638,272.9561236930872
868.756,281.3995809719047
868.873,295.93827634596033
868.99,318.76095440399877
869.108,341.6771389555438
869.225,374.6833667971321
869.342,404.74760329672927
869.46,437.7477705322573
869.577,468.614604434452
869.694,489.33944699465553
869.812,495.48939777996736
869.929,498.4506039765347
870.046,500.81007857137024
870.164,497.74963974629236
870.281,490.33508836710183
870.398,484.68763655501067
870.516,477.5085830113177
870.633,467.43775457584957
870.75,450.41887419232955
870.867,430.55497216378785
870.985,420.84431688849315
871.102,391.8496789292158
871.219,366.1693266842244
871.337,335.4604030106616
871.454,318.9731243587438
871.571,299.5066249276051
871.688,287.4920735484144
871.806,273.6021974938989
871.923,269.8499837770458
872.04,249.19906876149136
872.157,233.26590266368584
872.275,211.36823440137823
872.392,197.9406960092004
872.509,183.19540869927368
872.626,167.5557490949746
872.744,149.2433622179483
872.861,135.0798930898399
872.978,112.97789582320348
873.095,93.86031414098261
873.213,75.5955463115755
873.33,67.18099493238472
873.447,62.14133532808556
873.564,52.16314758525816
873.681,42.6423516025884
873.799,35.15631031949595
873.916,25.166756183156267
874.033,22.627905167757888
874.15,15.439813019216263
874.267,15.475926568155582
874.385,7.888315026268552
874.502,1.51588635618182
874.619,-8.006167490538742
874.736,-13.540791508556548
874.853,-15.37402667724275
874.97,-12.709317542165763
875.088,-9.434496469689666
875.205,-5.28748816035591
875.322,-3.5577686070504195
875.439,-0.7293780173118463
875.556,-12.936460936637815
875.673,-16.23725094935271
875.791,-16.597651331911262
875.908,-18.712734254068998
876.025,-17.687485988781347
876.142,-16.59043307649167
876.259,-9.044612936169647
876.376,-8.641158765639338
876.493,-10.44036829910766
876.61,-2.73417152217436
876.728,7.98438251565285
876.845,9.498231226684648
876.962,4.6919923408592945
877.079,-1.3561046793572364
877.196,1.415218013697242
877.313,-3.199973830884143
877.43,-3.277420896408394
877.547,-2.6515942418150695
877.664,-1.5769188693292255
877.781,-10.188870826276048
877.898,-11.356638686648841
878.016,-13.218611373451488
878.133,-3.044642854533454
878.25,1.1182795782166375
878.367,4.758431405062547
878.484,4.270912419114167
878.601,-3.214658382656084
878.718,-9.419641496214378
878.835,-14.306668734834139
878.952,-21.24506140704205
879.069,-20.864899946330315
879.186,-28.208965921228526
879.303,-30.44177692381311
879.42,-35.64504207266657
879.537,-35.138019424766306
879.654,-29.19903268229333
879.771,-24.52113771365626
879.888,-22.472264402157723
880.005,-24.78819141461039
880.122,-30.20410255507242
880.239,-38.71999782354382
880.356,-50.335877220024585
