wavelength_nm,intensity
792.446,0.2816620031858859
792.565,0.24409876239342107
792.684,0.21268971641271606
792.803,0.18743486524377084
792.922,0.16833420888658526
793.041,0.14878802635369898
793.16,0.14081487436093287
793.279,0.15254934580327062
793.398,0.16388909001348484
793.518,0.17920230899503298
793.637,0.20089033051336072
793.756,0.22688992293332105
793.875,0.23767772521082287
793.994,0.2431176919473269
794.113,0.23090904068224544
794.232,0.21648078832175377
794.351,0.2088820777932933
794.47,0.20107374766404768
794.589,0.19095368524388562
794.708,0.18831315446625377
794.827,0.19185724715210856
794.946,0.19415122939618437
795.066,0.1875304619246126
795.185,0.18667423347463147
795.304,0.1921133549708098
795.423,0.18620343461319072
795.542,0.17534463214832632
795.661,0.16735457534904521
795.78,0.1630573735329503
795.899,0.15813469387580303
796.018,0.15402936161365263
796.137,0.14914302729051254
796.256,0.1501209703474012
796.375,0.1468211848381173
796.494,0.137519889454305
796.613,0.13277558614221813
796.732,0.12778040380722855
796.851,0.13342944220761382
796.97,0.13989429487618837
797.089,0.1420309733122418
797.208,0.1586091243922701
797.327,0.1728054209567751
797.446,0.17859749296238336
797.565,0.1930862426795969
797.684,0.19608141444731048
797.803,0.20162245007617252
797.922,0.19768580593243978
798.041,0.19138417935726865
798.16,0.1868541765048621
798.279,0.17706508834566126
798.398,0.17272103836491903
798.517,0.1741136344750177
798.636,0.17551468298837383
798.755,0.18082919420993598
798.874,0.1811415731837307
798.993,0.18708578844797405
799.112,0.19068192608729395
799.231,0.18875103723655798
799.35,0.19120271947481726
799.469,0.1846382231583393
799.588,0.18343508622807111
799.707,0.18046201605569
799.826,0.1743970567717285
799.945,0.16808359683199772
800.064,0.1709511373105247
800.183,0.18069470783899877
800.302,0.18799806954704285
800.421,0.20088508884696782
800.54,0.21804395275321525
800.659,0.23351994317090158
800.778,0.24115379384631247
800.897,0.24173664972434644
801.016,0.23350618472582252
801.135,0.22814108443157896
801.254,0.22015066768556715
801.373,0.2233934948687256
801.492,0.21882038475970686
801.611,0.22256190373505574
801.729,0.224349227077279
801.848,0.2199020577767966
801.967,0.19868701089415647
802.086,0.18667832163954642
802.205,0.16700024570830718
802.324,0.1490423342487455
802.443,0.11980245704113843
802.562,0.11037143123986172
802.681,0.10017074447180266
802.8,0.08782651073137575
802.919,0.07542987795700205
803.038,0.07364022494762348
803.157,0.07243060501031386
803.276,0.07522385830812986
803.394,0.07080959275651338
803.513,0.07113333422685963
803.632,0.06152131759265867
803.751,0.057832949189015825
803.87,0.05228598303452758
803.989,0.04485644276902957
804.108,0.05513986719812472
804.227,0.06373018862522643
804.346,0.061955830360715905
804.465,0.06509860352577902
804.583,0.06731348800302811
804.702,0.06964740439537055
804.821,0.07129541450423044
804.94,0.06957290398291766
805.059,0.07195597812703078
805.178,0.07278881290968245
805.297,0.06622056685019767
805.416,0.07157626939485637
805.535,0.07572358650951841
805.653,0.07591081455042417
805.772,0.08788603733495208
805.891,0.1066406694043364
806.01,0.12288502945284667
806.129,0.14593293059932327
806.248,0.1743349825547464
806.367,0.20462186167704027
806.485,0.22932527628914562
806.604,0.24885835582866006
806.723,0.2636876729553955
806.842,0.2723864619994921
806.961,0.2664397719193803
807.08,0.2523229888506031
807.198,0.24669664485394888
807.317,0.2323245992067961
807.436,0.22099372825167907
807.555,0.22072029123797693
807.674,0.22090222744977064
807.793,0.22790018164838358
807.912,0.2540500137679222
808.03,0.2786331929436897
808.149,0.3088367976655082
808.268,0.3375684163600391
808.387,0.3596323567449192
808.506,0.3700374746966157
808.624,0.35812528970746615
808.743,0.33843858420210077
808.862,0.3173730804153617
808.981,0.29595342093213495
809.1,0.27639582588652756
809.219,0.2662144817744255
809.337,0.2532911780456021
809.456,0.2423339033144648
809.575,0.23037332831666668
809.694,0.22813386230527827
809.812,0.23033106276373289
809.931,0.24723290916919816
810.05,0.2616674990638095
810.169,0.28147359122853943
810.288,0.28835849453358375
810.406,0.2885761421491403
810.525,0.27995849263966943
810.644,0.27607926039633324
810.763,0.2827942703959029
810.882,0.2872744649741989
811.0,0.30212491310907763
811.119,0.319616737261914
811.238,0.3354054021583712
811.357,0.350045385452139
811.475,0.3500272110168119
811.594,0.3587538929916575
811.713,0.37365843650738373
811.832,0.37897879996947104
811.95,0.38131631032199914
812.069,0.3752681914027969
812.188,0.39000115113239675
812.307,0.40237081891120974
812.425,0.4056668317931347
812.544,0.4188901923009516
812.663,0.4307180610309612
812.782,0.4412772240320255
812.9,0.44231560000388204
813.019,0.4524901786567318
813.138,0.4776534040060433
813.257,0.4964240767717344
813.375,0.5109482621408754
813.494,0.5149872412691318
813.613,0.5147983282880044
813.731,0.5116755861362112
813.85,0.5068589823716224
813.969,0.5025664276089963
814.088,0.4997226147646995
814.206,0.49679596836847956
814.325,0.49639912626721877
814.444,0.49242945330902765
814.562,0.4856366776628437
814.681,0.48321548498142053
814.8,0.48467563587582496
814.918,0.46797664361189284
815.037,0.4638835655661432
815.156,0.467691794085471
815.274,0.4636570376221977
815.393,0.4659455240358332
815.512,0.46782322365115614
815.631,0.47152241616846247
815.749,0.4735269018326472
815.868,0.47384006160501313
815.987,0.4762519531062078
816.105,0.47851592755039674
816.224,0.47183725934818854
816.343,0.46257215574919613
816.461,0.4546602819117238
816.58,0.436299547167374
816.698,0.42313027850375884
816.817,0.41673053960904693
816.936,0.39661170498714465
817.055,0.38557244194441054
817.173,0.3726288524477697
817.292,0.3588763679593895
817.41,0.35416626447584476
817.529,0.35243225217925334
817.648,0.35467678609595055
817.766,0.35974949414259527
817.885,0.35653123983399315
818.004,0.3622446400475535
818.122,0.36287138398077196
818.241,0.3650187152600083
818.359,0.36887018526486637
818.478,0.37392413477947106
818.597,0.3570253389491462
818.715,0.3662155036215319
818.834,0.3719674441120287
818.953,0.4709367563224928
819.071,0.581187259407528
819.19,0.7177325181168899
819.308,0.8308144484015623
819.427,0.8905085396684489
819.546,0.8532638382836832
819.664,0.7655928236601368
819.783,0.6272117046348173
819.901,0.5341440925446147
820.02,0.422117486472669
820.138,0.3612980003921611
820.257,0.3140637927202933
820.376,0.2905766774610622
820.494,0.26430956470968026
820.613,0.2495622323578966
820.731,0.24687140801256016
820.85,0.24358130827626942
820.969,0.2494105064144571
821.087,0.26960963533065996
821.206,0.2923326518595417
821.324,0.3104305133259392
821.443,0.3141018129124966
821.561,0.30814244422749915
821.68,0.29287021763342763
821.798,0.2668363912119525
821.917,0.2508135912086181
822.035,0.24184770268494066
822.154,0.245132727442632
822.273,0.24894264644261216
822.391,0.24748249201156336
822.51,0.2454636337251963
822.628,0.2383023332969879
822.747,0.2381210274787936
822.865,0.24525865764123764
822.984,0.25243347837801455
823.102,0.26593999439495786
823.221,0.2692267096333012
823.339,0.27515141992829917
823.458,0.27884300528267514
823.576,0.27425377116571337
823.695,0.28288325050310037
823.813,0.28423859159711357
823.932,0.2748323328637232
824.05,0.26756453215447124
824.169,0.25614744668613
824.287,0.26385054262649865
824.406,0.26577388521941314
824.524,0.27089646244527804
824.643,0.280852123853761
824.761,0.2758614005820697
824.88,0.2696425431170687
824.998,0.2700021911073524
825.117,0.27316296553715974
825.235,0.2765654787001305
825.354,0.27330242665426474
825.472,0.27909696993909794
825.591,0.27641544323734546
825.709,0.2652654537119393
825.828,0.2588530362123417
825.946,0.2597054593125344
826.064,0.25822332863301534
826.183,0.25399247641416867
826.301,0.25087142474302715
826.42,0.25442608116463106
826.538,0.2488901778828319
826.657,0.24624668699573726
826.775,0.25569266848779404
826.894,0.2591619556364977
827.012,0.2599036522540177
827.13,0.260346979036549
827.249,0.2617479631081511
827.367,0.2554420458895973
827.486,0.25265063794549714
827.604,0.2610341523480908
827.723,0.28048270785503127
827.841,0.2874622780765602
827.959,0.2977695594605528
828.078,0.3155284795563258
828.196,0.3281525646731891
828.315,0.33857648922213435
828.433,0.34248022989827154
828.552,0.3383076992619016
828.67,0.3244343454069397
828.788,0.29578788113858157
828.907,0.262696297997123
829.025,0.23551118882903016
829.143,0.20524058973979237
829.262,0.18585699276530027
829.38,0.16578947696651475
829.499,0.15243380618498742
829.617,0.14626044905972768
829.735,0.14995668576506782
829.854,0.16212449614189745
829.972,0.18664666774725985
830.091,0.2291770806423682
830.209,0.27970057272458104
830.327,0.33888036916186537
830.446,0.3884895822135771
830.564,0.4326664356917166
830.682,0.4626724124885543
830.801,0.46850789693034683
830.919,0.4490799932759043
831.037,0.4121167338235261
831.156,0.3634240743707644
831.274,0.3150078085045216
831.392,0.2664985662024465
831.511,0.23936207077719568
831.629,0.22965527610916212
831.747,0.22540788870512482
831.866,0.22237299854837078
831.984,0.2166324941089024
832.102,0.2147234640660425
832.221,0.20601785217747126
832.339,0.19547525423853385
832.457,0.19294349000730926
832.576,0.18536137149550924
832.694,0.1836119429584919
832.812,0.18318270129753628
832.93,0.1833198109665059
833.049,0.1885169840272152
833.167,0.18073188319724537
833.285,0.17374202460164576
833.404,0.172654312292265
833.522,0.16723672315472454
833.64,0.16545383696974822
833.759,0.17447102707909934
833.877,0.19432892830257162
833.995,0.21516744382331454
834.113,0.2294893212935828
834.232,0.24478891860217217
834.35,0.25881642922051307
834.468,0.26628572015138735
834.586,0.26406010454594986
834.705,0.274329676676022
834.823,0.2777570283691767
834.941,0.26659384155929633
835.059,0.2541458894542811
835.178,0.24624533030178175
835.296,0.24579302889975996
835.414,0.2502033950917573
835.532,0.2616968752135099
835.651,0.2799810161123095
835.769,0.2895245268025654
835.887,0.3017880208610735
836.005,0.31164257999120437
836.124,0.328321609511412
836.242,0.34418667259792574
836.36,0.3658306437915676
836.478,0.38499045366784046
836.596,0.39654225537206955
836.715,0.4002409292097885
836.833,0.4143656424655898
836.951,0.4269866731818882
837.069,0.44060255176159024
837.188,0.4527341883292818
837.306,0.47438069524390086
837.424,0.4892078032103977
837.542,0.49748429865235977
837.66,0.5061183307521124
837.779,0.5195524826617792
837.897,0.5264132005581159
838.015,0.5315530091512328
838.133,0.5275109720857664
838.251,0.5291464142883388
838.369,0.5260206177359815
838.487,0.5202847190577193
838.606,0.5257643142617866
838.724,0.5261919080388675
838.842,0.5187951121205137
838.96,0.5097932048235674
839.078,0.4965625601769117
839.196,0.5004556392895531
839.315,0.5009322570055273
839.433,0.4973170663045633
839.551,0.4992483426211477
839.669,0.4942123029326042
839.787,0.486501922853399
839.905,0.47615608343851645
840.023,0.47387383673125494
840.142,0.4793880867886785
840.26,0.4790253808611873
840.378,0.4698070920408506
840.496,0.4605059696685908
840.614,0.45006546333722475
840.732,0.44409543308873145
840.85,0.4432365710900268
840.968,0.4452447642762539
841.087,0.45376553417235727
841.205,0.457571553531447
841.323,0.4557871533760499
841.441,0.4635717189484283
841.559,0.47036566285903186
841.677,0.4744328614787774
841.795,0.48965892287902746
841.913,0.5086420775272203
842.031,0.5324245067450013
842.149,0.5460606710925221
842.267,0.551182729638799
842.385,0.5658889682387149
842.504,0.5701936793899951
842.622,0.5668734775627167
842.74,0.5728610622025581
842.858,0.5749225055293072
842.976,0.572065495400538
843.094,0.563886852180869
843.212,0.5612808784288464
843.33,0.5644166222096195
843.448,0.575684423164399
843.566,0.5944875416232082
843.684,0.6099654846405309
843.802,0.6190077678176202
843.92,0.617771928633633
844.038,0.6155573011524311
844.156,0.6120545274147919
844.274,0.6161555356475673
844.392,0.631148310717911
844.51,0.6380073381335968
844.628,0.627197461779879
844.746,0.6211978481199842
844.864,0.5999171346109198
844.982,0.5724492619173915
845.1,0.5427313594767262
845.218,0.5274535427611132
845.336,0.508968884249618
845.454,0.4808442598229845
845.572,0.4516216682132064
845.69,0.4330254379787123
845.808,0.40639435320767237
845.926,0.3802239244141642
846.044,0.3603463098458382
846.162,0.35018980426392204
846.28,0.3342932716298617
846.398,0.31327711834275535
846.516,0.2989307564661141
846.634,0.28199035202975703
846.752,0.2662045458783695
846.87,0.2464849912509582
846.988,0.23197380751079638
847.106,0.21226560813356424
847.224,0.19490974957903007
847.342,0.17887166337871716
847.46,0.17615325842817137
847.578,0.17832732076968297
847.696,0.18120923346049914
847.814,0.1891541783889188
847.932,0.1985107116574806
848.05,0.2035061719711353
848.168,0.2153168050312836
848.285,0.23227072547359903
848.403,0.24651734115254864
848.521,0.2596397871982555
848.639,0.26423629407815796
848.757,0.280344974194727
848.875,0.28998333961770717
848.993,0.296179041193922
849.111,0.29631606011518663
849.229,0.30151944954897547
849.347,0.30390734345770287
849.465,0.3016582489393853
849.582,0.2974760897960856
849.7,0.3091430320008572
849.818,0.31710359537723065
849.936,0.3170157803718466
850.054,0.3193960671176421
850.172,0.3340872792079346
850.29,0.34917068280937325
850.408,0.35086378917033684
850.525,0.3524935025068695
850.643,0.36218680855102303
850.761,0.3654824905696017
850.879,0.3557724596959201
850.997,0.35517411953378525
851.115,0.3530577277466097
851.233,0.3587538922903085
851.35,0.3648954984856758
851.468,0.3781971354804413
851.586,0.40575290532859476
851.704,0.443516642590788
851.822,0.4800344956128312
851.94,0.5283113320466586
852.057,0.5781400297185564
852.175,0.639459769618977
852.293,0.6874517600630274
852.411,0.7262010475450409
852.529,0.7662503146480524
852.647,0.8046817917675851
852.764,0.8315495359905809
852.882,0.8556102370917729
853.0,0.8757329635153119
853.118,0.8845607434659015
853.236,0.8773255762660057
853.353,0.8613709098657094
853.471,0.8378547235112854
853.589,0.8169706155312358
853.707,0.7865741729252358
853.824,0.7587776895612318
853.942,0.7305492883907716
854.06,0.7004605132633437
854.178,0.6643451746133436
854.296,0.6295946877793427
854.413,0.5879715518566975
854.531,0.5433719021269364
854.649,0.48767551478061344
854.767,0.4399155114728865
854.884,0.3975815284362889
855.002,0.34567731181142736
855.12,0.30386737777679274
855.238,0.2645800634943481
855.355,0.23105559775284265
855.473,0.19815426355696614
855.591,0.16407369053930487
855.708,0.1353000335501083
855.826,0.11252077249256912
855.944,0.08546934904781664
856.062,0.07236376631688604
856.179,0.059614067174794214
856.297,0.05735155367240763
856.415,0.06193910281550655
856.532,0.0611260112781213
856.65,0.05522175750693818
856.768,0.05346782859353466
856.886,0.04756237411663322
857.003,0.049651012545578896
857.121,0.05775706953693585
857.239,0.0590734963539467
857.356,0.07277307768336823
857.474,0.0746924357975703
857.592,0.07765779759175805
857.709,0.08829280772205653
857.827,0.101820493416024
857.945,0.13371003855733588
858.062,0.16783975546409913
858.18,0.1994047360820118
858.298,0.23927176511561143
858.415,0.2622362897662539
858.533,0.28145724501416547
858.651,0.3048545327115898
858.768,0.31406615202201177
858.886,0.32995094370420164
859.003,0.3342373476364989
859.121,0.3332257852070176
859.239,0.32400271301290984
859.356,0.30432486322964447
859.474,0.28883433402012687
859.592,0.2805663833941125
859.709,0.25447654049973434
859.827,0.2400915856362924
859.944,0.22315992167137647
860.062,0.20844870404219656
860.18,0.194023177643119
860.297,0.17903303070644289
860.415,0.17780931295519925
860.532,0.1819959785290587
860.65,0.1786033741019498
860.768,0.18699849125770063
860.885,0.19151733627957834
861.003,0.1953591438005331
861.12,0.20295635408877913
861.238,0.1970102786375898
861.356,0.19915737930542232
861.473,0.19803593563359312
861.591,0.19937667703066303
861.708,0.20337908021350842
861.826,0.2000422616478975
861.943,0.19557113056513487
862.061,0.19400001904000835
862.178,0.18288529899687872
862.296,0.18480249429610762
862.414,0.18622437876444903
862.531,0.1901549365196057
862.649,0.1967150369281595
862.766,0.19956453230668633
862.884,0.19733920476943145
863.001,0.19531673491035562
863.119,0.19071797253840453
863.236,0.19106978275435016
863.354,0.1951220551164137
863.471,0.1883518703476199
863.589,0.1904989710154512
863.706,0.19814013380063444
863.824,0.20653271523540637
863.941,0.21402765144423555
864.059,0.2199698811746686
864.176,0.21964549913001746
864.294,0.22228791062873643
864.411,0.21176063261200026
864.529,0.20463629214671925
864.646,0.20789995528486208
864.764,0.21233681199514093
864.881,0.21353470777715944
864.999,0.2261661694455499
865.116,0.23884158361087915
865.233,0.2583389324453079
865.351,0.27139977619917766
865.468,0.27953709505557445
865.586,0.2883117251175843
865.703,0.2940248947197407
865.821,0.28675686339908313
865.938,0.2850412157782538
866.056,0.2815818373654094
866.173,0.2857448362101461
866.29,0.2947933241376972
866.408,0.3015545917437784
866.525,0.30638533044585475
866.643,0.3171200728232699
866.76,0.3229338260241892
866.878,0.31973309115102266
866.995,0.30931738485728455
867.112,0.301342732624302
867.23,0.2925498877559971
867.347,0.2802459145745415
867.465,0.2673866184990705
867.582,0.26528385080904865
867.699,0.27490034023550114
867.817,0.2773153820865939
867.934,0.28550848680448915
868.051,0.3057082303496125
868.169,0.3211306755736171
868.286,0.33690558601345766
868.404,0.34425767660723494
868.521,0.3462543244970828
868.638,0.36144855483313554
868.756,0.36415097839498156
868.873,0.38211337079785357
868.99,0.41332406006647543
869.108,0.44228556482828607
869.225,0.47997586643408
869.342,0.5108298642852367
869.46,0.5446582628426953
869.577,0.5767412401274872
869.694,0.5927063296406205
869.812,0.6068178071193917
869.929,0.6120196063244697
870.046,0.6128177034324089
870.164,0.6086643827121252
870.281,0.5939675341684806
870.398,0.5884221026316925
870.516,0.5725655843611234
870.633,0.5566549707097064
870.75,0.5352536759022404
870.867,0.5183228571776474
870.985,0.5067424097150293
871.102,0.48444769588324943
871.219,0.4594042605121421
871.337,0.4377291078391343
871.454,0.41423330750446863
871.571,0.39566610350923037
871.688,0.3752385255570242
871.806,0.3650096173752747
871.923,0.3502882568621826
872.04,0.33465150107630726
872.157,0.3118614764136395
872.275,0.2870217439610365
872.392,0.26179573667956735
872.509,0.24348717622400706
872.626,0.225918201053475
872.744,0.21705858219943425
872.861,0.20235328125253108
872.978,0.19025554671055578
873.095,0.17353350234642173
873.213,0.16026341947263598
873.33,0.1455682614096418
873.447,0.13724198920114697
873.564,0.1270397018716926
873.681,0.11976522294652367
873.799,0.10927879898205234
873.916,0.09411401019131076
874.033,0.0843708308431672
874.15,0.07604772227868682
874.267,0.07539641634985814
874.385,0.07465918133638444
874.502,0.06880553950103051
874.619,0.0651115618389801
874.736,0.06286198313564081
874.853,0.06300551451825145
874.97,0.05718281968450967
875.088,0.06590432038380589
875.205,0.06621510073552533
875.322,0.06841307366373957
875.439,0.06620815074857549
875.556,0.062941361926318
875.673,0.06075210195948766
875.791,0.05912975783510341
875.908,0.05353126162410511
876.025,0.06294340274673141
876.142,0.05684803903051365
876.259,0.060069084108431155
876.376,0.05901314234918571
876.493,0.05461149190262975
876.61,0.05087646893379778
876.728,0.05290496713859138
876.845,0.056780975722073426
876.962,0.06674920806195922
877.079,0.07261006272546205
877.196,0.08454856811455272
877.313,0.08394347052042345
877.43,0.0815551107595271
877.547,0.0735191231914809
877.664,0.07027011763932221
877.781,0.06494123072262997
877.898,0.06621797645267727
878.016,0.0676593411319656
878.133,0.07138089757335306
878.25,0.07038597116068737
878.367,0.07258422402187306
878.484,0.06615203242589981
878.601,0.061077268448454645
