wavelength_nm,intensity
792.446,0.3013715445617688
792.565,0.2645979902074194
792.684,0.23293402310074196
792.803,0.2063796432417365
792.922,0.18493485063040274
793.041,0.15979724717597033
793.16,0.1458569852573555
793.279,0.1514588797396161
793.398,0.17024484485967334
793.518,0.18851685780592237
793.637,0.22612286731204212
793.756,0.2559320933929175
793.875,0.2673127261161685
793.994,0.27169513551218893
794.113,0.25682368067651307
794.232,0.23747218395301817
794.351,0.22542562395080068
794.47,0.21333485300890076
794.589,0.20823585796552768
794.708,0.2019661940818137
794.827,0.20187316689623191
794.946,0.2070974262687052
795.066,0.21036166731525763
795.185,0.2114236509288792
795.304,0.2138745948975237
795.423,0.20624912886354863
795.542,0.1951494198195297
795.661,0.18473866458556187
795.78,0.18016651657340432
795.899,0.17749175472261763
796.018,0.17295998951128486
796.137,0.16057872929267636
796.256,0.14522310322997017
796.375,0.13534381943238144
796.494,0.1329423343821727
796.613,0.12993634526826112
796.732,0.12949709475044918
796.851,0.138892725098332
796.97,0.14664872253910743
797.089,0.14813137185119535
797.208,0.16372836365689777
797.327,0.1824136738116663
797.446,0.19383457393986614
797.565,0.20397888318473578
797.684,0.20711115318372397
797.803,0.20489942584859894
797.922,0.19765041457340732
798.041,0.1835726552397678
798.16,0.1853343861086007
798.279,0.17660891366026488
798.398,0.16896476711166164
798.517,0.1795742122844398
798.636,0.18814258574187936
798.755,0.1945169913175787
798.874,0.19475989219607168
798.993,0.19155341871809206
799.112,0.19470042569697427
799.231,0.18803905149506145
799.35,0.18255847780716647
799.469,0.1928022616663207
799.588,0.19255423690208934
799.707,0.18985250498548345
799.826,0.1857719443875319
799.945,0.1815863828078345
800.064,0.1889776399962289
800.183,0.19126806001876343
800.302,0.19751351702038827
800.421,0.21436499423957847
800.54,0.22198191143260226
800.659,0.2329533336740301
800.778,0.2391766852058142
800.897,0.25145877759657725
801.016,0.25132680654901246
801.135,0.2461953150723601
801.254,0.2438979290415999
801.373,0.253327494761603
801.492,0.25285104680901255
801.611,0.2486535114331513
801.729,0.24589006841323863
801.848,0.2486548349761159
801.967,0.2245927717641948
802.086,0.19977359621021218
802.205,0.17393112161483015
802.324,0.15521835257156272
802.443,0.12542655371827313
802.562,0.09782971284526379
802.681,0.0829574824323723
802.8,0.07397355929678753
802.919,0.05994433100964588
803.038,0.0550899458018078
803.157,0.06050458199633181
803.276,0.062432290334651294
803.394,0.06249246585790787
803.513,0.059663783017119366
803.632,0.057504375761565946
803.751,0.05007040049627988
803.87,0.047689008515876846
803.989,0.044630683745253225
804.108,0.05389780968854506
804.227,0.05288725057803195
804.346,0.05885879018082606
804.465,0.05707656044237465
804.583,0.060014635676600266
804.702,0.059421363252796774
804.821,0.05971730760098155
804.94,0.052557937241851885
805.059,0.05697739882833561
805.178,0.059537075711771636
805.297,0.0655032676269364
805.416,0.07554915650987121
805.535,0.09218519372923771
805.653,0.10133450152837961
805.772,0.10443956624066418
805.891,0.11071909432048019
806.01,0.11875136522642096
806.129,0.13684849456646075
806.248,0.1664901368680387
806.367,0.20227667322126627
806.485,0.23273907393873905
806.604,0.2597598530420938
806.723,0.2773673862380657
806.842,0.2911211991917198
806.961,0.28796156453311617
807.08,0.2793934582533628
807.198,0.2697854738298291
807.317,0.24509050623966744
807.436,0.2279298196203858
807.555,0.22161094489697553
807.674,0.2280478473331884
807.793,0.23462659320088247
807.912,0.25145951389116905
808.03,0.27850424058685275
808.149,0.316376963259757
808.268,0.3467292208804319
808.387,0.37522001372822816
808.506,0.38752776052977
808.624,0.39022423325660144
808.743,0.36367609044475185
808.862,0.33557503837655717
808.981,0.31135349626549547
809.1,0.2896639515124958
809.219,0.274198017581041
809.337,0.26518043341451675
809.456,0.25468730913609156
809.575,0.2523953141687563
809.694,0.2538557227069669
809.812,0.26000617509648827
809.931,0.27517197493625095
810.05,0.27936609324482525
810.169,0.288597495493466
810.288,0.29587440578364643
810.406,0.29476873769779
810.525,0.28635721182941276
810.644,0.2898789554303168
810.763,0.30540857446121616
810.882,0.31716552663921527
811.0,0.32233412774328973
811.119,0.3343895037641454
811.238,0.3535969203398768
811.357,0.3690491702263321
811.475,0.3757246275245825
811.594,0.38772934517705193
811.713,0.40474095174855595
811.832,0.40970231407286894
811.95,0.41035034659441527
812.069,0.41004231754532905
812.188,0.4250966689746424
812.307,0.4370719126673235
812.425,0.4395657519206108
812.544,0.44145445393699506
812.663,0.4464462112823393
812.782,0.454642340693416
812.9,0.4598229155936537
813.019,0.471623157650091
813.138,0.4913334736647088
813.257,0.5053811051550026
813.375,0.5162455489881614
813.494,0.5212363852722617
813.613,0.532240830414415
813.731,0.5405014341125278
813.85,0.540799463361587
813.969,0.5411527562852492
814.088,0.5356702051708309
814.206,0.5288567205597232
814.325,0.5258545873737381
814.444,0.5130818365179373
814.562,0.5150119862902729
814.681,0.5073327041103851
814.8,0.5074953373566675
814.918,0.5049859719358933
815.037,0.4931646773445081
815.156,0.4836957731687252
815.274,0.4827770805152747
815.393,0.482525236202034
815.512,0.49863788699999434
815.631,0.511468796587778
815.749,0.528900407086264
815.868,0.533907822472745
815.987,0.5271247328826691
816.105,0.5126019656644386
816.224,0.4966432639677728
816.343,0.48553487077876656
816.461,0.47974652733154555
816.58,0.4704378878121116
816.698,0.4535489142596284
816.817,0.4454247594991859
816.936,0.43286569485185
817.055,0.41585329909275287
817.173,0.39583916474146785
817.292,0.38926884029861397
817.41,0.3857840710210963
817.529,0.38522275013007923
817.648,0.3768425403439768
817.766,0.3838661587922261
817.885,0.38311602034631564
818.004,0.3809456054631073
818.122,0.38409800350541423
818.241,0.39280624296781275
818.359,0.39420770358644697
818.478,0.4110418683275143
818.597,0.42224244568291996
818.715,0.4429467794213008
818.834,0.4555127148731703
818.953,0.4660654377917941
819.071,0.47729893339378143
819.19,0.475601156658673
819.308,0.46912417361441056
819.427,0.47193867498083586
819.546,0.4791609937859154
819.664,0.48629548647123455
819.783,0.48734626643926304
819.901,0.47550924234403696
820.02,0.4531571823822332
820.138,0.41119835162253987
820.257,0.36006921299748207
820.376,0.3119797004175251
820.494,0.27610765463890163
820.613,0.25807195983840664
820.731,0.2665259863976316
820.85,0.27393184526188535
820.969,0.2968428490972631
821.087,0.31385261354628036
821.206,0.3322200222680456
821.324,0.3456367268066227
821.443,0.34431921463478843
821.561,0.34467527074218274
821.68,0.3329073977029152
821.798,0.3045760803238756
821.917,0.2793155811302778
822.035,0.250498864475975
822.154,0.23664847196541683
822.273,0.2327464619446481
822.391,0.23085328649569983
822.51,0.23817624984805078
822.628,0.2421870769691934
822.747,0.252714412387277
822.865,0.2620093678617129
822.984,0.2640435975545537
823.102,0.2646888668923718
823.221,0.26885627442488985
823.339,0.27233104390238316
823.458,0.2799597995875378
823.576,0.28845435284147325
823.695,0.29725654055069883
823.813,0.302496984431759
823.932,0.29953537794048585
824.05,0.29086411280147645
824.169,0.2821781106825729
824.287,0.2760812117188214
824.406,0.2762051603928845
824.524,0.28130836614868066
824.643,0.2849802427322582
824.761,0.28298851373026834
824.88,0.2833675963687483
824.998,0.2888705427041726
825.117,0.2821454799724328
825.235,0.27737214601542326
825.354,0.28194389943378656
825.472,0.28389707573720957
825.591,0.27957690391194523
825.709,0.273263555555998
825.828,0.27203814950850314
825.946,0.26955641592503266
826.064,0.26097357266538757
826.183,0.25657050532821857
826.301,0.25982606222978655
826.42,0.2570016938637776
826.538,0.25945776960608835
826.657,0.26481242508132813
826.775,0.27203591381939385
826.894,0.2849524821028152
827.012,0.28760750707369703
827.13,0.2853882759445916
827.249,0.2850949838754019
827.367,0.2812123161407451
827.486,0.2781982091585994
827.604,0.28090757674284106
827.723,0.29185307396542126
827.841,0.31017258750253274
827.959,0.3254424672628003
828.078,0.34302421074396117
828.196,0.36339492767008813
828.315,0.38121614707452844
828.433,0.3829105051685605
828.552,0.37268725183444873
828.67,0.34491133438517063
828.788,0.3097107422529751
828.907,0.26818290632006786
829.025,0.22043817817192699
829.143,0.184581151361844
829.262,0.15924162070242087
829.38,0.14511621320983725
829.499,0.14102754353922883
829.617,0.14099522285954916
829.735,0.15062400517444569
829.854,0.1614549053315495
829.972,0.1844947986497853
830.091,0.22580772039802524
830.209,0.2741825344945464
830.327,0.3266313051302071
830.446,0.3886520804882694
830.564,0.43643291700009845
830.682,0.4679574830968241
830.801,0.47754973886609314
830.919,0.46170665813400596
831.037,0.4278816987473356
831.156,0.37527906379179815
831.274,0.31730848390981947
831.392,0.2735001417061112
831.511,0.24959869615565833
831.629,0.23946711619379416
831.747,0.23118318508615798
831.866,0.2216309526463823
831.984,0.22174433689467682
832.102,0.216899648469836
832.221,0.2101833635984391
832.339,0.19736873223459767
832.457,0.19920081676304627
832.576,0.19339967434115818
832.694,0.18400020725897887
832.812,0.1812724523941862
832.93,0.18318391865498213
833.049,0.18386265642948366
833.167,0.1742086276962178
833.285,0.16485034481914468
833.404,0.16712733749401593
833.522,0.17968686953465302
833.64,0.1819824168116771
833.759,0.19408069407844908
833.877,0.20801774886457536
833.995,0.22376050447200196
834.113,0.2361344482295491
834.232,0.2524818994675473
834.35,0.26751902316520304
834.468,0.28578928928279956
834.586,0.2880060528059636
834.705,0.2944477242525294
834.823,0.29694080614870866
834.941,0.29007406368962096
835.059,0.2849951011039414
835.178,0.28106930719497836
835.296,0.27220662502147797
835.414,0.27776315661315176
835.532,0.29448479259712484
835.651,0.3173904337691774
835.769,0.3344344411883351
835.887,0.34747367432125986
836.005,0.36092830607495063
836.124,0.3805337848119592
836.242,0.3886720510688386
836.36,0.4067614629992373
836.478,0.4297030255597824
836.596,0.4566972575912166
836.715,0.47273546613259965
836.833,0.4855711447307371
836.951,0.5091915294276561
837.069,0.5230864284556849
837.188,0.5243360776732964
837.306,0.5274656128886545
837.424,0.5369384968871973
837.542,0.5495319363783246
837.66,0.5510284300091632
837.779,0.5605878937645845
837.897,0.5732264652566382
838.015,0.5763596847169709
838.133,0.5747089120791674
838.251,0.5738143307221824
838.369,0.576905181365319
838.487,0.5747505882273847
838.606,0.5665538333328521
838.724,0.5650181933504719
838.842,0.5621322775852908
838.96,0.553343280311263
839.078,0.5431616384372387
839.196,0.5420837658928205
839.315,0.5474164796023537
839.433,0.5354894266721169
839.551,0.5283666291873701
839.669,0.5281287644969177
839.787,0.5314010642050013
839.905,0.5158376614858848
840.023,0.5090482881712429
840.142,0.5055959197413806
840.26,0.4994945791755466
840.378,0.4861269864606572
840.496,0.479247349144164
840.614,0.4830262325361087
840.732,0.48005465807529324
840.85,0.47398555465297787
840.968,0.47697693068182956
841.087,0.48496230077230845
841.205,0.48614747570288447
841.323,0.4837745910502686
841.441,0.4880388737174769
841.559,0.5043902430816116
841.677,0.5183459321517051
841.795,0.5368267951105437
841.913,0.5607824461000561
842.031,0.5789031741127317
842.149,0.5797328194033622
842.267,0.5690464359679639
842.385,0.5777824709718011
842.504,0.5943097630334224
842.622,0.6126653616631608
842.74,0.6352504735225177
842.858,0.6541669984494769
842.976,0.6593090524816306
843.094,0.6553123368569297
843.212,0.6430629124915094
843.33,0.638808299718661
843.448,0.641666121867223
843.566,0.64710015231353
843.684,0.6566688266813876
843.802,0.6667514532230532
843.92,0.6754091980212042
844.038,0.6865786768300632
844.156,0.6955440560835044
844.274,0.6954996142541646
844.392,0.6984302002409546
844.51,0.6922993857153341
844.628,0.6815024749307307
844.746,0.6673611907714004
844.864,0.6458578640937027
844.982,0.6219643834894242
845.1,0.5944511321986468
845.218,0.5605153208577538
845.336,0.5281720244066713
845.454,0.5009618022649672
845.572,0.47778490730804096
845.69,0.464410867164449
845.808,0.44801298295882774
845.926,0.42907389078271047
846.044,0.4069543741331886
846.162,0.38977819317690776
846.28,0.36206230841258547
846.398,0.3393966024457368
846.516,0.3198339518078481
846.634,0.3036239640958768
846.752,0.28366802030706306
846.87,0.2597423025592651
846.988,0.24214335449227106
847.106,0.2262606555901433
847.224,0.207534739604476
847.342,0.19564751853578843
847.46,0.1904835052424502
847.578,0.18981975376169233
847.696,0.19585986777017264
847.814,0.20409837015146495
847.932,0.21942914308159941
848.05,0.22442499986816553
848.168,0.23620170952852354
848.285,0.24400219780119325
848.403,0.25910485961141044
848.521,0.2735167254890899
848.639,0.2823920922327891
848.757,0.3028258565197124
848.875,0.3227447475715842
848.993,0.3341180324073406
849.111,0.33462647881614105
849.229,0.3366095442755991
849.347,0.3424886987945711
849.465,0.3313447994133226
849.582,0.32918585246128373
849.7,0.3366326532164951
849.818,0.3463268434055631
849.936,0.34953399925747836
850.054,0.34867282759736706
850.172,0.3581155680669911
850.29,0.37314822922271174
850.408,0.36525383390812116
850.525,0.37482736507430564
850.643,0.3882960642387605
850.761,0.39767709360507775
850.879,0.39561117383862016
850.997,0.4050695723493815
851.115,0.41013542979044515
851.233,0.4071263433107626
851.35,0.4037202794351817
851.468,0.4095754863618256
851.586,0.4330561212418631
851.704,0.4613971963032372
851.822,0.5006178467714614
851.94,0.5605743490119863
852.057,0.6271560447761713
852.175,0.6819481566250428
852.293,0.7431665127690037
852.411,0.7969095358616612
852.529,0.8426015626259005
852.647,0.8805216746184669
852.764,0.9103272370568212
852.882,0.9408134637540365
853.0,0.9723469370849791
853.118,0.9819057312712696
853.236,0.9787078272366933
853.353,0.9615153186701428
853.471,0.9361806287120787
853.589,0.9076111716672506
853.707,0.8618611592495832
853.824,0.8304962813310852
853.942,0.8040857918407491
854.06,0.7639607004364273
854.178,0.7253691760023395
854.296,0.6753924135387841
854.413,0.6291450280496896
854.531,0.5774016701213239
854.649,0.5213366928390011
854.767,0.4838946528366565
854.884,0.4389708323543051
855.002,0.38387389043877906
855.12,0.3393746791896278
855.238,0.29740562317605224
855.355,0.2531532563401281
855.473,0.22217706626633904
855.591,0.19406618571912432
855.708,0.16858306386709576
855.826,0.13843696310031484
855.944,0.10840637088349273
856.062,0.07964582088289981
856.179,0.059398653186872694
856.297,0.043536697437311395
856.415,0.045500028318680844
856.532,0.04233617733180446
856.65,0.03645439844373904
856.768,0.037732309783577896
856.886,0.039753210544427015
857.003,0.03730115156372587
857.121,0.04618654859164009
857.239,0.0532659738589348
857.356,0.06167951653915216
857.474,0.06578596634397263
857.592,0.07274815588527077
857.709,0.09109840953246796
857.827,0.11317748788761614
857.945,0.1359852039991314
858.062,0.168854858737788
858.18,0.20234475802603713
858.298,0.22935891803867375
858.415,0.25024846599704975
858.533,0.2809850797084428
858.651,0.309713779909259
858.768,0.3251598559192366
858.886,0.3401444802462787
859.003,0.3530834275517651
859.121,0.35814638016507594
859.239,0.3548424124434877
859.356,0.32991192672724623
859.474,0.31215650809696505
859.592,0.2886195880419634
859.709,0.2625442232001959
859.827,0.24927345176395088
859.944,0.23347713039834725
860.062,0.21647421880391068
860.18,0.20551254790482876
860.297,0.191281109591734
860.415,0.18765200725123077
860.532,0.18837123504074274
860.65,0.19118495609770964
860.768,0.2011147963210602
860.885,0.20547221602193833
861.003,0.2043566898146294
861.12,0.19853638277611546
861.238,0.2000246967038524
861.356,0.19412057309219038
861.473,0.1996643196745463
861.591,0.20542819989407088
861.708,0.21265564642933243
861.826,0.22110534123456432
861.943,0.21911388578479674
862.061,0.20929985719497018
862.178,0.201561900647731
862.296,0.1853409700489268
862.414,0.18042975045763338
862.531,0.1867315304432952
862.649,0.1962699196382081
862.766,0.21326890490453018
862.884,0.2205055620522266
863.001,0.2305836931357621
863.119,0.22885658226284655
863.236,0.2208155965665347
863.354,0.21889966813872552
863.471,0.2241422276944956
863.589,0.23514234108265825
863.706,0.24263044794979807
863.824,0.2610736572457457
863.941,0.27545774964210085
864.059,0.27520986312606
864.176,0.2726169546843639
864.294,0.26880824540140114
864.411,0.2572810428988813
864.529,0.2430247359322148
864.646,0.23495980264357436
864.764,0.24815388391347687
864.881,0.2504619423478255
864.999,0.2638061566003998
865.116,0.28040263810336263
865.233,0.3013179757765525
865.351,0.3221200229168063
865.468,0.3335650088855235
865.586,0.3449970999968333
865.703,0.3524870489864603
865.821,0.3503850661874878
865.938,0.3470147820563759
866.056,0.3418134281734168
866.173,0.33632562424376544
866.29,0.3305817652884534
866.408,0.3290729459302203
866.525,0.32896229753944406
866.643,0.331609306511359
866.76,0.33204300531542263
866.878,0.3267145449808766
866.995,0.3172726251333783
867.112,0.3086596604049253
867.23,0.30486292491812683
867.347,0.30604913075803514
867.465,0.3089733791642091
867.582,0.32042757574536107
867.699,0.32310774292203837
867.817,0.32944268111246255
867.934,0.3259720013058219
868.051,0.32706241677641795
868.169,0.33394630746789866
868.286,0.3354843587027795
868.404,0.34123902830987174
868.521,0.3540536323475013
868.638,0.3727510545466236
868.756,0.3992636813958578
868.873,0.4201320449456357
868.99,0.448466530934283
869.108,0.4810544777448771
869.225,0.5107337131488647
869.342,0.5410742705256021
869.46,0.5738141924413542
869.577,0.611025866693735
869.694,0.6339942498784277
869.812,0.6513183697636643
869.929,0.6661436504956006
870.046,0.6772340278856153
870.164,0.6762824505796294
870.281,0.6658255212419221
870.398,0.6546041110722063
870.516,0.6326735218256662
870.633,0.6034803646750442
870.75,0.5807622680654108
870.867,0.5561366536207293
870.985,0.5351731786797417
871.102,0.5195555431953542
871.219,0.49281333001337646
871.337,0.4703236565921022
871.454,0.4473458207118345
871.571,0.42782656980047323
871.688,0.4133114446244164
871.806,0.3928610007959941
871.923,0.3718118671593723
872.04,0.354243423961498
872.157,0.3200875888315237
872.275,0.29526855152573167
872.392,0.26987016669785124
872.509,0.24922630000831852
872.626,0.2362797421297448
872.744,0.22575281213754078
872.861,0.2152940406773473
872.978,0.20737463506516307
873.095,0.19842640404411893
873.213,0.18667630472070115
873.33,0.16524861491304885
873.447,0.13608663385148032
873.564,0.11602329610128664
873.681,0.09583439035689446
873.799,0.083293522468569
873.916,0.08075739545482599
874.033,0.08369698533201214
874.15,0.08114099064349539
874.267,0.07327149604706837
874.385,0.06249850227218823
874.502,0.06229097936539848
874.619,0.06017710436045715
874.736,0.061125712584400194
874.853,0.061744535527316846
874.97,0.06077416626529902
875.088,0.05766280137487577
875.205,0.05623163381821773
875.322,0.05826890099648169
875.439,0.06760695619675339
875.556,0.07230355205818544
875.673,0.07348981774467545
875.791,0.06724947608376577
875.908,0.059681798531401084
876.025,0.05326657020253066
876.142,0.04936174861096189
876.259,0.04644830752742306
876.376,0.05000707799597083
876.493,0.04945060631850512
876.61,0.054369014240854295
876.728,0.06279128034088352
876.845,0.06972184298705074
876.962,0.0709369403946217
877.079,0.07259732458993168
877.196,0.06705886552891477
877.313,0.06078716203986061
877.43,0.048890875806306085
877.547,0.04527721299794431
877.664,0.04769533211814855
877.781,0.05023567701293924
877.898,0.0535869031871936
878.016,0.05488864147208864
878.133,0.052469493764624925
878.25,0.052773625639018794
878.367,0.04903058166152345
878.484,0.047073498319588625
878.601,0.04692626358641146
