wavelength_nm,intensity
792.446,0.24141944195973328
792.565,0.21317105461052432
792.684,0.18844957497339843
792.803,0.1672550030483556
792.922,0.14958733883539566
793.041,0.13059114109862474
793.16,0.11892233770468104
793.279,0.120475735952235
793.398,0.12391067126431235
793.518,0.13128950779697324
793.637,0.15248836657116888
793.756,0.17784079246087622
793.875,0.20113864846571042
793.994,0.2058682122219358
794.113,0.20084246616060727
794.232,0.19322590435674525
794.351,0.17682831663369475
794.47,0.16643543543305045
794.589,0.1669319305076575
794.708,0.16920006342305233
794.827,0.17148378488082103
794.946,0.1704876770231321
795.066,0.17242221513172656
795.185,0.17987899437625665
795.304,0.1891074114615746
795.423,0.19026096359723937
795.542,0.18830460152932146
795.661,0.1675281029820363
795.78,0.14885585736046159
795.899,0.13262215959613188
796.018,0.1178090302906043
796.137,0.10920525380064809
796.256,0.11097298680055737
796.375,0.11435151605766036
796.494,0.12001668418624782
796.613,0.11059439230688582
796.732,0.10982997686195885
796.851,0.10931341924077592
796.97,0.11078829790785198
797.089,0.11284618805970983
797.208,0.12203038035777217
797.327,0.14555836992113053
797.446,0.15901771996522066
797.565,0.1710413652566794
797.684,0.17017016829649118
797.803,0.16950318124140035
797.922,0.1657340742539138
798.041,0.1518480032658001
798.16,0.1461022691053098
798.279,0.1441897575145486
798.398,0.14017435155755523
798.517,0.14377083084171163
798.636,0.14204304347808025
798.755,0.15086947872866247
798.874,0.1509920513448067
798.993,0.15078024972703197
799.112,0.15061131660078553
799.231,0.1517331147830937
799.35,0.15175202359245232
799.469,0.15592216123596692
799.588,0.15326217903838024
799.707,0.1476505063423056
799.826,0.1397527739071062
799.945,0.1300802859226442
800.064,0.1315910182371806
800.183,0.14213531085736167
800.302,0.1590179048067492
800.421,0.17638140528836996
800.54,0.18762952059673033
800.659,0.19494308780993147
800.778,0.19584352869053173
800.897,0.19375330771670934
801.016,0.19586186063128286
801.135,0.19033904262673915
801.254,0.19313972682271163
801.373,0.1962007396763274
801.492,0.19956572910623321
801.611,0.20393384123789599
801.729,0.19783035002992644
801.848,0.1988586169579922
801.967,0.18848776227518171
802.086,0.16606540548314955
802.205,0.14511694537256475
802.324,0.1259900051979701
802.443,0.10526047205457274
802.562,0.08669957656168492
802.681,0.0718251218693692
802.8,0.06944114612967282
802.919,0.06259430048007812
803.038,0.05268467360871387
803.157,0.04728106904399746
803.276,0.04214898588125085
803.394,0.037595980748866525
803.513,0.03194266047801095
803.632,0.026009601522253123
803.751,0.024513100590906126
803.87,0.02602079022423802
803.989,0.030658169332091603
804.108,0.04093323363270818
804.227,0.05201408600576533
804.346,0.05448023306150499
804.465,0.055050307605552865
804.583,0.0467332678468913
804.702,0.041307661998183545
804.821,0.03868248544566935
804.94,0.035464678105019076
805.059,0.040968351360429464
805.178,0.03954554872834669
805.297,0.03584178688101508
805.416,0.045685508839704306
805.535,0.054961759611592276
805.653,0.058567885548585455
805.772,0.06374431072749193
805.891,0.07902354904372957
806.01,0.09684149390589492
806.129,0.11763913680140209
806.248,0.14903108656183706
806.367,0.1934632202994349
806.485,0.2157192213621919
806.604,0.2304939495530578
806.723,0.2378750320960074
806.842,0.23809084113681778
806.961,0.23159812096704274
807.08,0.22759878814996456
807.198,0.22389096107527745
807.317,0.21203188519330524
807.436,0.19615096537888033
807.555,0.19256394950759043
807.674,0.19525366022313032
807.793,0.2033829928000245
807.912,0.2260346114523954
808.03,0.25478446788141546
808.149,0.28506667802578484
808.268,0.3083995159798927
808.387,0.32377985904198214
808.506,0.3347525417478662
808.624,0.33552875888701644
808.743,0.32446781637458555
808.862,0.3033701908547528
808.981,0.27839881255501886
809.1,0.25641575782835163
809.219,0.247054745861789
809.337,0.2328262115389924
809.456,0.23099602439323566
809.575,0.2276740137423017
809.694,0.23040503409513297
809.812,0.2312958270207316
809.931,0.23697386130933898
810.05,0.25337681275115365
810.169,0.271863172881233
810.288,0.27579295214261323
810.406,0.2836237641330489
810.525,0.27674133040392856
810.644,0.2648923870745003
810.763,0.26082758237945286
810.882,0.26746275316981466
811.0,0.2768804787739083
811.119,0.2876590841272386
811.238,0.30792643522353014
811.357,0.33130525937764166
811.475,0.34079235399529884
811.594,0.3381219444155923
811.713,0.34581479780601965
811.832,0.3577508524306086
811.95,0.36059878685124425
812.069,0.3618411014073737
812.188,0.3789393018390622
812.307,0.3911886861653651
812.425,0.40375529732897575
812.544,0.40868741986499435
812.663,0.42059775339466576
812.782,0.4353576724702767
812.9,0.44753612892877837
813.019,0.45558128337685444
813.138,0.46652590670646626
813.257,0.48256954224656373
813.375,0.48790540803006516
813.494,0.4927595878542147
813.613,0.49198162731869327
813.731,0.4841810284437534
813.85,0.48178965377253874
813.969,0.47591891644348117
814.088,0.46519000988361403
814.206,0.46621096713803445
814.325,0.46250158120911067
814.444,0.46713518315867014
814.562,0.4740384768778619
814.681,0.47409294450510364
814.8,0.48160730908535043
814.918,0.47430320528501757
815.037,0.4616459960335054
815.156,0.4498937016667952
815.274,0.4416402556358952
815.393,0.43751543505270885
815.512,0.44199315157853036
815.631,0.44478964380933245
815.749,0.45296340373199323
815.868,0.4504270556167017
815.987,0.44937317788116315
816.105,0.4471922485319953
816.224,0.4468460906202294
816.343,0.4406246110877601
816.461,0.42735944868366765
816.58,0.41011063427593836
816.698,0.391493925274904
816.817,0.38007522571499375
816.936,0.3722036989722525
817.055,0.3637265573582871
817.173,0.3597630781886692
817.292,0.3493139859644117
817.41,0.33526004331620196
817.529,0.31988341284757116
817.648,0.30731895542318255
817.766,0.30634302039951244
817.885,0.30594074373519986
818.004,0.307115248132002
818.122,0.32202169950592674
818.241,0.3313271876049279
818.359,0.3398680577004919
818.478,0.35461701678551716
818.597,0.3483612092022823
818.715,0.36875131152617485
818.834,0.3860130158350974
818.953,0.48610105616735255
819.071,0.5994157366080592
819.19,0.7331299215232154
819.308,0.8359960406104192
819.427,0.8949118283854833
819.546,0.8480359817312169
819.664,0.7526449937809039
819.783,0.6075478923121522
819.901,0.5055532405365908
820.02,0.3925575603637389
820.138,0.32816194497957085
820.257,0.2856642160098255
820.376,0.2649479544436328
820.494,0.235095803526646
820.613,0.2218509062276381
820.731,0.23048218986896943
820.85,0.23368788133708318
820.969,0.24548753621589936
821.087,0.2674891126512804
821.206,0.2947915729208884
821.324,0.31207683586106194
821.443,0.3098078312474807
821.561,0.30119662816909964
821.68,0.28409746376815825
821.798,0.2526303398612415
821.917,0.22602528232072774
822.035,0.21268529491323993
822.154,0.20175529615674892
822.273,0.20409816180447055
822.391,0.206375555574222
822.51,0.21473871628672342
822.628,0.21847675647690407
822.747,0.22550865567067882
822.865,0.22934490367781477
822.984,0.23416322985450333
823.102,0.2290516545390508
823.221,0.23365875596657354
823.339,0.23985355043487258
823.458,0.24461575785901493
823.576,0.2453576802049418
823.695,0.2479102117475913
823.813,0.24773864551041097
823.932,0.24415318849335804
824.05,0.23118187011301133
824.169,0.23067748849614955
824.287,0.23187069914379976
824.406,0.23236086653038934
824.524,0.23492197177134466
824.643,0.2356942917749011
824.761,0.2376451055819203
824.88,0.23979077616861258
824.998,0.24166676497223727
825.117,0.2497345228067543
825.235,0.25530733443433684
825.354,0.2535075449462081
825.472,0.2516017533699373
825.591,0.24612462673581792
825.709,0.23889378908464076
825.828,0.23576975292185365
825.946,0.22752098345366406
826.064,0.22047097289402334
826.183,0.22111780513146995
826.301,0.21249335179207063
826.42,0.22038106196216967
826.538,0.23333894553936269
826.657,0.2415423236925322
826.775,0.25292186735437316
826.894,0.244282604899719
827.012,0.23407825279073063
827.13,0.22430024731566717
827.249,0.21485427779316674
827.367,0.21757282731209854
827.486,0.21933891689198834
827.604,0.22886420343846092
827.723,0.2423988630834872
827.841,0.25424372473518847
827.959,0.2670730028377982
828.078,0.28200829301511493
828.196,0.30199582977579553
828.315,0.30876740031192784
828.433,0.30352410181341705
828.552,0.29377571456886403
828.67,0.2785370427002417
828.788,0.256486177814248
828.907,0.22705894569084437
829.025,0.2013858762485338
829.143,0.17382854200896591
829.262,0.14816691883950023
829.38,0.12472172623386496
829.499,0.1180310734240389
829.617,0.11590430498166049
829.735,0.12199078353253662
829.854,0.13508277571322425
829.972,0.16565025269594047
830.091,0.1992885845539989
830.209,0.23674403532270838
830.327,0.28355252294604155
830.446,0.3394909329394332
830.564,0.38488139636945773
830.682,0.4246716759516773
830.801,0.43445712917271473
830.919,0.42479977291797044
831.037,0.38347818996634797
831.156,0.32600843596965656
831.274,0.2762479956039518
831.392,0.23340107378104835
831.511,0.20962517469831035
831.629,0.19944014628421147
831.747,0.1919371265855332
831.866,0.18717535206329605
831.984,0.18045409776466614
832.102,0.18048580002238707
832.221,0.17551793967329876
832.339,0.16657536955516078
832.457,0.16158862869492083
832.576,0.15521154215089206
832.694,0.15544878966864142
832.812,0.14724286685085744
832.93,0.1436841748423932
833.049,0.1460582206823141
833.167,0.1439835759039065
833.285,0.14511405685767195
833.404,0.14488290278745197
833.522,0.14677552920669973
833.64,0.15599496659668333
833.759,0.15640484738132826
833.877,0.1694971095627887
833.995,0.18697683781167107
834.113,0.20200380336464246
834.232,0.22309588496766553
834.35,0.23135410860215938
834.468,0.23553436955165474
834.586,0.238146423138341
834.705,0.23410138970427552
834.823,0.2384523451927644
834.941,0.228860128954965
835.059,0.21503250575419103
835.178,0.21385810239826936
835.296,0.21328541677797802
835.414,0.21427002654083416
835.532,0.22473558777546454
835.651,0.24031652919007318
835.769,0.2574446334352862
835.887,0.2609358808118572
836.005,0.269360901849751
836.124,0.2920954253597184
836.242,0.3083794100353876
836.36,0.32268520868381545
836.478,0.34266133962073037
836.596,0.36391339275094486
836.715,0.37339375810754805
836.833,0.3816831588267894
836.951,0.39633892025150996
837.069,0.41539143005277435
837.188,0.41675562082243367
837.306,0.42785407687744204
837.424,0.4410180147969853
837.542,0.4501983007128918
837.66,0.45221097484530304
837.779,0.4615401313408798
837.897,0.4705037365177899
838.015,0.46968475192799164
838.133,0.4640637168599297
838.251,0.4654497315889121
838.369,0.4658295059076627
838.487,0.46175251596173017
838.606,0.4655680050196769
838.724,0.47083946393534104
838.842,0.4712410622134152
838.96,0.45758491297875364
839.078,0.45182981644627684
839.196,0.4467754248935046
839.315,0.45190424864644846
839.433,0.45140327032107724
839.551,0.45620005812145825
839.669,0.4587100067555959
839.787,0.45881776100992355
839.905,0.4471405772296221
840.023,0.4368484354392368
840.142,0.4297457094185406
840.26,0.4166484094279813
840.378,0.41223080983118043
840.496,0.4074047904241847
840.614,0.4026816553968566
840.732,0.40235137161047885
840.85,0.4026079964444764
840.968,0.3956806415254862
841.087,0.3954945517560665
841.205,0.3998260215665879
841.323,0.4109353896012584
841.441,0.4225887977647762
841.559,0.4314877104908351
841.677,0.44266644753906925
841.795,0.4580813709773965
841.913,0.4663442711746022
842.031,0.4908153583050162
842.149,0.5078000479603896
842.267,0.5115820216522327
842.385,0.5190615975951524
842.504,0.5196611703613744
842.622,0.5177151341579471
842.74,0.5170442407207005
842.858,0.5218870147210839
842.976,0.5361078558135742
843.094,0.5330799747694017
843.212,0.5419555046818993
843.33,0.5462339734483491
843.448,0.5466659693840519
843.566,0.5432203154042599
843.684,0.5434566751331706
843.802,0.5527437425643373
843.92,0.5595311872258577
844.038,0.56735449052812
844.156,0.5847624091089427
844.274,0.5898023781703544
844.392,0.5903372584857239
844.51,0.5823077936209013
844.628,0.5729727883322688
844.746,0.5601124341857908
844.864,0.5402715307643038
844.982,0.5164111216917198
845.1,0.49316178348019074
845.218,0.47004806558731416
845.336,0.4480193102436574
845.454,0.42499990303214263
845.572,0.40207402707487083
845.69,0.38257373330425226
845.808,0.36157538061150674
845.926,0.33946790312886177
846.044,0.32692243753833505
846.162,0.31198646897477855
846.28,0.2888259854547799
846.398,0.2712181407283458
846.516,0.2555058627545714
846.634,0.23725810836369066
846.752,0.22521459383760145
846.87,0.20789903428067702
846.988,0.19801998886319672
847.106,0.18228128579378855
847.224,0.1606175702462183
847.342,0.14320106064171373
847.46,0.13508979096761772
847.578,0.13059419465197153
847.696,0.13372693387664655
847.814,0.1396907260812813
847.932,0.1536149924695279
848.05,0.16598441809227465
848.168,0.18098603371315852
848.285,0.1880623118937565
848.403,0.19552128878963226
848.521,0.20560927335685739
848.639,0.2108952074458187
848.757,0.22604011515912012
848.875,0.2388896100078724
848.993,0.24871336878186107
849.111,0.2608044810441259
849.229,0.2647170645499516
849.347,0.2671074268929712
849.465,0.2685920949240704
849.582,0.26814456312793106
849.7,0.2715240184845713
849.818,0.28234388511624925
849.936,0.28720659027976114
850.054,0.28360627578851094
850.172,0.29344484367775503
850.29,0.30014309970578745
850.408,0.2974890097366298
850.525,0.30087470051021936
850.643,0.3025744904260774
850.761,0.3149235930646297
850.879,0.31767483016360387
850.997,0.30932001024833033
851.115,0.3185553015477066
851.233,0.31665179989385006
851.35,0.3211060852471672
851.468,0.33528762104176524
851.586,0.35708805692158124
851.704,0.3868363111307035
851.822,0.42345911252669255
851.94,0.46613884206204015
852.057,0.515109912442693
852.175,0.5610536878943451
852.293,0.6144094255312024
852.411,0.6679042909087464
852.529,0.7193940800234543
852.647,0.7552092000676989
852.764,0.7892733370898013
852.882,0.8145887944181409
853.0,0.826953680455847
853.118,0.8247690004689225
853.236,0.8159948487637929
853.353,0.8103680237639435
853.471,0.7933639011125413
853.589,0.7630113096264131
853.707,0.7311785860418881
853.824,0.7058254349518327
853.942,0.6808604385668859
854.06,0.6405839861487868
854.178,0.5986594350882125
854.296,0.5642910402298018
854.413,0.5235177030235365
854.531,0.47687177219148347
854.649,0.4298567826187294
854.767,0.3948882288789256
854.884,0.3601418118679488
855.002,0.31009855308229456
855.12,0.2638058975917881
855.238,0.2297946752105174
855.355,0.19457767907662973
855.473,0.1702960454179964
855.591,0.14298819930458329
855.708,0.12561579543029935
855.826,0.11114397419389133
855.944,0.08606465827011826
856.062,0.06681777918812602
856.179,0.05310361674198018
856.297,0.03817415425616483
856.415,0.03119831501026378
856.532,0.01793483522683078
856.65,0.012436087146216003
856.768,0.013111000653978952
856.886,0.008653103769105818
857.003,0.009788647640782504
857.121,0.01787322397245466
857.239,0.03254946351979475
857.356,0.03842184533352562
857.474,0.04545846874051174
857.592,0.05505490613256141
857.709,0.06568297396584294
857.827,0.074284555028892
857.945,0.08610164867967131
858.062,0.11084387328746473
858.18,0.14213296739281184
858.298,0.1721066717383138
858.415,0.20372029266037267
858.533,0.22963719668268534
858.651,0.2530599339251823
858.768,0.26875075415025057
858.886,0.27843375014443783
859.003,0.2844362912841595
859.121,0.2830740255793567
859.239,0.2841030422747021
859.356,0.26391137623652855
859.474,0.2464640730832709
859.592,0.2304563718182382
859.709,0.20872455779352855
859.827,0.18626787654843507
859.944,0.1729421839988229
860.062,0.1623195446968359
860.18,0.15325731848647092
860.297,0.1361303598789956
860.415,0.13397385794024483
860.532,0.1334611677948162
860.65,0.12333630915076665
860.768,0.11661643015080927
860.885,0.11926365703275235
861.003,0.12701126690218445
861.12,0.13426474542794128
861.238,0.13792331800505475
861.356,0.15054759149794197
861.473,0.15909590314971164
861.591,0.15025959907526004
861.708,0.1454817720078398
861.826,0.1416821259743786
861.943,0.1416432157886084
862.061,0.14298311217580517
862.178,0.13692060211839302
862.296,0.14136613110702898
862.414,0.13930574334257356
862.531,0.13666850525777507
862.649,0.13558459116801977
862.766,0.13922081345655485
862.884,0.14231525964508795
863.001,0.1439302789098322
863.119,0.14468551581014819
863.236,0.14972611139310257
863.354,0.1555341205128003
863.471,0.16451552037165723
863.589,0.16505338625371946
863.706,0.17048059845133906
863.824,0.1840372354969202
863.941,0.18433971438913704
864.059,0.18545279748479393
864.176,0.1843148950616671
864.294,0.18398447913350555
864.411,0.17756050199140683
864.529,0.17123707094761947
864.646,0.16925738723630476
864.764,0.18823727817374714
864.881,0.20112984331420175
864.999,0.20679556021014045
865.116,0.21427422458415757
865.233,0.2304092065383724
865.351,0.2353781155902
865.468,0.24625274392035976
865.586,0.2543549499893307
865.703,0.26559279135680125
865.821,0.26752115521860964
865.938,0.25988127177135045
866.056,0.2505437960595792
866.173,0.2455399351277378
866.29,0.24044799893148416
866.408,0.2498074209429062
866.525,0.2544863831065804
866.643,0.25695255168028697
866.76,0.2601053955455613
866.878,0.25667441853924106
866.995,0.24548970055616895
867.112,0.237283953020739
867.23,0.24025596979447672
867.347,0.24227396777493496
867.465,0.2444384980537072
867.582,0.2530574643023712
867.699,0.2581791410694625
867.817,0.25739353970398426
867.934,0.2621504445795278
868.051,0.2634055782675663
868.169,0.27574962157324145
868.286,0.30823133363101274
868.404,0.3647891596716325
868.521,0.4317262269383194
868.638,0.48308683295149824
868.756,0.5281882494880177
868.873,0.5522564355130632
868.99,0.567725404752748
869.108,0.574489664467233
869.225,0.5928841722921803
869.342,0.5946248464285563
869.46,0.6007219242878328
869.577,0.5925790542451281
869.694,0.5857411307556434
869.812,0.5701130137780748
869.929,0.5749512796396596
870.046,0.5822645547962002
870.164,0.5896240135956539
870.281,0.5762810619209221
870.398,0.5676458500430923
870.516,0.5506286789308446
870.633,0.5307369806048592
870.75,0.5005178729561996
870.867,0.4757415048773691
870.985,0.45954351166686697
871.102,0.4459402313344919
871.219,0.4300508912629919
871.337,0.40965178588273776
871.454,0.39474842111638353
871.571,0.3767717752210251
871.688,0.35144746987775344
871.806,0.32752301563965325
871.923,0.30717691130346964
872.04,0.2891955888453987
872.157,0.2768658924249661
872.275,0.2609601843839729
872.392,0.25084250212638937
872.509,0.23474817272267273
872.626,0.20981513979298444
872.744,0.1935851900706153
872.861,0.1818400639892021
872.978,0.1601104765173394
873.095,0.1474378321646821
873.213,0.13535365528663745
873.33,0.11892929604122182
873.447,0.10243241171172285
873.564,0.08589939984897019
873.681,0.08110853542008244
873.799,0.07293030365766565
873.916,0.05846449870652401
874.033,0.050384285740996265
874.15,0.04701294967999622
874.267,0.03727968211578053
874.385,0.03622467837324185
874.502,0.04495530706678154
874.619,0.04602826898322151
874.736,0.04948738852208863
874.853,0.050571486086683486
874.97,0.049764015466496864
875.088,0.04957761596451811
875.205,0.04303271590454015
875.322,0.03898606620089677
875.439,0.03537699639932426
875.556,0.028068066084355605
875.673,0.027122338091708602
875.791,0.023519597332772313
875.908,0.020837058551250863
876.025,0.027252177924654092
876.142,0.03125670211059525
876.259,0.03539466294322584
876.376,0.034836818409267584
876.493,0.034384676961941016
876.61,0.037802477119901465
876.728,0.042358129310764714
876.845,0.04295586690368516
876.962,0.04696767576017599
877.079,0.04649524474013911
877.196,0.04666633946822251
877.313,0.043377831501398886
877.43,0.0378319096318506
877.547,0.03725432902430029
877.664,0.04179174105161008
877.781,0.03682726992974919
877.898,0.03549340815273967
878.016,0.02827364500535994
878.133,0.034006635237498764
