wavelength_nm,intensity
792.446,212.06547754610378
792.565,170.7497199703463
792.684,136.9222740829005
792.803,110.58313988376632
792.922,91.73231737294361
793.041,77.16175460238085
793.16,68.34790178852802
793.279,78.46824810887429
793.398,89.37387581450193
793.518,104.69941694004297
793.637,130.35136499199095
793.756,153.57907061969644
793.875,174.87430871493456
793.994,180.66997971060556
794.113,172.50547754610346
794.232,152.45266369328965
794.351,136.17387581450188
794.47,120.30028274090887
794.589,122.0266896673158
794.708,122.29595373657983
794.827,131.9712784119045
794.946,129.83275027337638
795.066,129.086429927056
795.185,127.33578057640665
795.304,122.19552083614695
795.423,118.56435200497816
795.542,111.94097538160159
795.661,100.65526109588734
795.78,96.44054248116873
795.899,85.48989313051938
796.018,85.48729572792193
796.137,91.23101867164482
796.256,81.96521780584392
796.375,86.2795035201296
796.494,77.48383252445856
796.613,71.29595373657973
796.732,66.74963339025942
796.851,58.66478490541095
796.97,62.54010958073565
797.089,69.56868100930704
797.208,75.39552083614686
797.327,91.52625676688277
797.446,104.77214421277017
797.565,116.97820481883078
797.684,123.72712256774858
797.803,121.56175460238066
797.922,118.16694940757552
798.041,115.31500135562752
798.16,106.50114854177474
798.279,93.61456845519461
798.398,75.43794507857125
798.517,71.47171131233753
798.636,73.4033130439392
798.755,82.33837797900414
798.874,93.73837797900416
798.993,107.84313988376607
799.112,112.18376037438657
799.231,110.93938808001423
799.35,88.40049919112542
799.469,82.14025388088011
799.588,77.64090323152942
799.707,86.67907061969674
799.826,91.38376037438647
799.945,91.52899846962453
800.064,99.66976326038926
800.183,113.31759875822472
800.302,114.51413555476154
800.421,123.6067762474022
800.54,127.947035987662
800.659,139.48036932099535
800.778,143.2492004898266
800.897,147.94184118246733
801.016,157.53664637727252
801.135,163.24660308722915
801.254,165.41889745952346
801.373,171.1297199703459
801.492,160.5851312257571
801.611,162.45179789242377
801.729,159.40244724307303
801.848,157.93578057640644
801.967,137.97560741623334
802.086,110.72971997034594
802.205,87.5054775461036
802.324,71.95752118179477
802.443,42.0001232842631
802.562,35.460549902491415
802.681,25.23242760375848
802.8,18.01019125912509
802.919,5.662213200427923
803.038,-2.123530398562469
803.157,-8.80253164972601
803.276,-14.285629339941817
803.394,-19.831265853882336
803.513,-19.02218587602799
803.632,-25.4217099651541
803.751,-26.82283753175139
803.87,-27.04157046350319
803.989,-20.279879518788988
804.108,-17.004077198943563
804.227,-7.721869608476
804.346,2.028398551807305
804.465,5.456763491550035
804.583,6.555363645306032
804.702,2.934837833112318
804.821,1.0219970870127486
804.94,-0.15125133822513614
805.059,-6.19297366001813
805.178,-6.526337888007853
805.297,-10.812245490010335
805.416,-7.067910280594728
805.535,1.8211264774868523
805.653,7.420336915377421
805.772,12.261728512809942
805.891,27.46940162928961
806.01,34.647536539161436
806.129,63.18828279204904
806.248,87.73605605986424
806.367,118.78714378790906
806.485,144.61754661639947
806.604,154.8595987487284
806.723,164.96745174685825
806.842,172.86837833806166
806.961,165.73900189896216
807.08,162.4026990529362
807.198,158.92959967011373
807.317,151.76126219205298
807.436,141.23967796074533
807.555,128.91722792857186
807.674,132.41122811284862
807.793,138.85760924950625
807.912,157.22000770218128
808.03,179.72872650117657
808.149,210.41147127419782
808.268,246.47776583076885
808.387,268.19600843928794
808.506,275.14022507378104
808.624,262.2792469030793
808.743,247.93948085358977
808.862,234.36941177379725
808.981,211.98289247755454
809.1,188.76866755360612
809.219,180.19686687208173
809.337,165.41034757583873
809.456,158.25153390730125
809.575,144.7498630959065
809.694,145.34169877801807
809.812,148.83136995796514
809.931,154.822339839211
810.05,169.70421881136582
810.169,183.87008046750339
810.288,196.02641831411728
810.406,205.806132784108
810.525,205.4360637043152
810.644,197.8962976548252
810.763,195.32969177849532
810.882,205.29728503636443
811.0,219.42938045873552
811.119,233.89827241790294
811.238,253.29876610867205
811.357,273.33648923667045
811.475,279.99152838198484
811.594,281.02578830651976
811.713,288.04879281979913
811.832,298.30123456251573
811.95,297.93722608878204
812.069,300.3645596063902
812.188,312.65942559153086
812.307,320.5897894121696
812.425,325.55824847090355
812.544,329.2011664040965
812.663,335.5843440775494
812.782,343.8437122271929
812.9,352.413902887659
813.019,372.55119311522446
813.138,387.53177338608003
813.257,400.3201458647279
813.375,411.41674345160106
813.494,406.2726483977816
813.613,406.0766052920143
813.731,404.67883058451525
813.85,406.80486540082575
813.969,403.13955822579396
814.088,392.2898354663466
814.206,391.0002858670722
814.325,384.2873596444211
814.444,381.0774637248004
814.562,385.97232970994173
814.681,398.83342946131677
814.8,405.8789447971076
814.918,392.2378800463183
815.037,377.357854256568
815.156,363.9280449170342
815.274,350.81944769871245
815.393,344.075352644893
815.512,349.7702186300347
815.631,372.4746084247003
815.749,386.9374397778075
815.868,394.41325814390177
815.987,400.63453105545057
816.105,403.46532777652317
816.224,398.0259946274658
816.343,372.0057090974561
816.461,352.87546685748964
816.58,336.2950081673068
816.698,314.33186549443997
816.817,307.7488094016597
816.936,301.41077495390107
817.055,303.35758899099085
817.173,296.96847229214967
817.292,284.60792702187973
817.41,278.31664582087365
817.529,271.29895769346047
817.648,261.3860314708092
817.766,255.82375459880728
817.885,248.78528725061489
818.004,250.69920085480362
818.122,258.2858417317197
818.241,267.9036514398048
818.359,284.7486437782921
818.478,296.8665406525946
818.597,285.92947197509653
818.715,287.7193530973017
818.834,311.21587068907206
818.953,405.8070490226741
819.071,545.9940967025359
819.19,713.1419885947275
819.308,859.4396942245121
819.427,939.5786678946265
819.546,893.6279792858144
819.664,767.7205700237126
819.783,602.5844440560109
819.901,463.4535122003926
820.02,344.5517738176895
820.138,286.25502227357674
820.257,248.6347123679148
820.376,228.29695345806863
820.494,197.20134325273426
820.613,177.69967244133937
820.731,173.69410552604822
820.85,181.5681922904106
820.969,191.88730069979448
821.087,218.86008876285797
821.206,236.2120976051421
821.324,241.76150904482876
821.443,248.5247732983682
821.561,248.03262629649652
821.68,237.4400463941921
821.798,217.081232725654
821.917,188.04969178438864
822.035,167.81468763966012
822.154,147.19353630878442
822.273,137.8866706921944
822.391,135.94257563837496
822.51,147.21146759754248
822.628,154.90460198095258
822.747,161.48691385354013
822.865,169.89087074777268
822.984,175.59266313984085
823.102,170.75765899511242
823.221,168.4577197854489
823.339,171.00886282686758
823.458,176.53576344404368
823.576,174.31461211316767
823.695,180.54367723250795
823.813,191.2194955986014
823.932,195.29444816382914
824.05,183.0196171792732
824.169,186.67292472285595
824.287,179.90458724479373
824.406,174.88170431218606
824.524,168.85535817611517
824.643,170.45238866342078
824.761,177.3879472892546
824.88,179.63346262504535
824.998,180.2114454933035
825.117,190.26821624034957
825.235,177.380398242807
825.354,178.48305643574065
825.472,169.53722978018942
825.591,165.72040745364237
825.709,160.77111759462775
825.828,159.19412210790745
825.946,157.60673701079747
826.064,160.69467658901226
826.183,156.38867677328773
826.301,160.6367895116759
826.42,161.87451263967455
826.538,168.34340459884197
826.657,177.2148939606069
826.775,191.41885085483938
826.894,191.7730522778097
827.012,194.28595207811998
827.13,186.11572964702356
827.249,184.25353258734128
827.367,181.05001024972256
827.486,182.2177167467215
827.604,186.13933606102214
827.723,197.34214091989722
827.841,203.15253824975366
827.959,220.6734701068405
828.078,229.32817755720083
828.196,247.584082503382
828.315,258.1352255448013
828.433,254.11147681132888
828.552,246.11803110815953
828.67,229.4068364872412
828.788,200.52507909576005
828.907,171.77499090730706
829.025,137.05885976009876
829.143,109.66544839695769
829.262,82.92624849522372
829.38,65.14415019100962
829.499,63.4535770681925
829.617,65.57696428566932
829.735,68.25531222439432
829.854,76.56548659314335
829.972,98.1808598077412
830.091,125.1908544426935
830.209,161.58241147873838
830.327,225.42542816809626
830.446,285.7235299386761
830.564,344.21003672126335
830.682,387.1831235904307
830.801,397.8341325375201
830.919,379.8020246014927
831.037,340.27727597282455
831.156,277.94300353463257
831.274,232.53427222198175
831.392,181.1731599569499
831.511,151.45966673953703
831.629,141.6111085870591
831.747,131.38939026142083
831.866,128.3720009401115
831.984,130.50439516858552
832.102,126.50518766545761
832.221,125.31896717531676
832.339,113.87127482370393
832.457,111.22098506949371
832.576,114.48238362697187
832.694,102.73041827225647
832.812,98.32877633375097
832.93,96.86487825938754
833.049,92.26818975528005
833.167,87.91501679916804
833.285,82.49250664816871
833.404,86.02265181795806
833.522,94.85091922791757
833.64,90.23672639161046
833.759,98.33273356382429
833.877,113.13815153150335
833.995,132.1709799848163
834.113,151.24916874867387
834.232,167.81311377536133
834.35,180.82208044707056
834.468,189.3782332659659
834.586,195.29023024070545
834.705,193.23599344921135
834.823,189.75491683087762
834.941,181.29981423851808
835.059,171.28713588858284
835.178,168.62337528756512
835.296,161.18212550905815
835.414,160.2421744318499
835.532,179.7619636143818
835.651,185.0843501995111
835.769,199.88465886256256
835.887,210.59492423557077
836.005,231.16319826658759
836.124,254.7730307391626
836.242,265.6599194887938
836.36,285.5121762037929
836.478,307.27092642528567
836.596,319.17080218790403
836.715,326.3382104180549
836.833,330.9298610724484
836.951,344.1050615103917
837.069,352.80493727301007
837.188,358.5792719100873
837.306,370.1665935601512
837.424,384.1972052535051
837.542,396.9827953018374
837.66,406.7545325363169
837.779,416.03536067988745
837.897,427.99843990570906
838.015,430.5623849323965
838.133,428.89689272964677
838.251,424.65910615460245
838.369,421.72348408172263
838.487,416.38439880537953
838.606,417.89206677578966
838.724,417.34518929165426
838.842,414.45372306292995
838.96,399.3016507735996
839.078,383.81624515093597
839.196,374.8754282728611
839.315,371.16837762855255
839.433,367.4829720058891
839.551,374.1473499330093
839.669,382.6195200679216
839.787,384.79645210759566
839.905,370.2911330650186
840.023,364.1425239791514
840.142,362.1203218196913
840.26,355.034050396162
840.378,343.0724542973081
840.496,340.6519837395799
840.614,341.4202577705962
840.732,336.6179690310497
840.85,325.04078851661126
840.968,323.96836990693447
841.087,323.5401071414135
841.205,323.42006948411745
841.323,331.5164820432716
841.441,343.14622793575904
841.559,358.7326837849565
841.677,372.96329547830993
841.795,388.33763011538633
841.913,405.9310123715104
842.031,423.63781454105435
842.149,427.62080718678885
842.267,439.135401564125
842.385,452.21882711029235
842.504,452.56285871706564
842.622,463.6038600208086
842.74,471.05784833753864
842.858,485.5880271304591
842.976,487.16928817446194
843.094,473.7860470539626
843.212,464.53613926679645
843.33,473.54077693417565
843.448,472.95580421194416
843.566,480.91282283170386
843.684,485.43434361596553
843.802,503.5627908071534
843.92,514.735393842497
844.038,521.8759622458059
844.156,518.1273531599373
844.274,536.2947613900858
844.392,538.8128189708838
844.51,529.299707720513
844.628,518.8402761238217
844.746,503.16612591241187
844.864,481.27639128541773
844.982,457.6334099051768
845.1,433.1090432435506
845.218,424.98034757759547
845.336,398.7676692276576
845.454,378.6034757262047
845.572,355.0332243545223
845.69,330.8908652350948
845.808,308.17003149129846
845.926,294.1530289073844
846.044,273.77410806139324
846.162,263.57439449445053
846.28,230.907134959803
846.398,208.35328183840306
846.516,187.71889573631137
846.634,171.08757968167035
846.752,156.26528959210623
846.87,148.50501518064038
846.988,131.58586586622135
847.106,119.29123254832567
847.224,101.73582762025083
847.342,89.53283252156949
847.46,90.5994337797848
847.578,83.1495132496761
847.696,78.30622618414714
847.814,86.59820828048717
847.932,89.6946406154359
848.05,94.48928516868315
848.168,117.43274640908882
848.285,140.32552234574518
848.403,164.71236009614918
848.521,176.2247717925988
848.639,181.21683716870203
848.757,194.43227916818194
848.875,204.9308380507786
848.993,204.44757875155716
849.111,214.12449261250896
849.229,217.77543244748682
849.347,216.43503029112279
849.465,213.52319956333014
849.582,201.63387965804822
849.7,201.83806624627292
849.818,215.63013162237627
849.936,216.47760825389096
850.054,221.5112320715528
850.172,230.6167173610761
850.29,240.81570914410597
850.408,248.87270958514455
850.525,247.41196110843424
850.643,261.8222083027197
850.761,275.6255290900786
850.879,269.11629576488343
850.997,273.5706988033247
851.115,282.22077283743704
851.233,278.9219291226318
851.35,287.13823692297825
851.468,293.53896030774035
851.586,320.426047328866
851.704,346.87071010756733
851.822,384.892429163325
851.94,439.42367202860646
852.057,499.5293737683469
852.175,547.5584521314638
852.293,604.4650196720701
852.411,639.4360893771784
852.529,680.1166828918106
852.647,705.5946790038456
852.764,739.9746231678286
852.882,760.0532686305131
853.0,775.2436024048861
853.118,780.1560141013372
853.236,781.5861747155371
853.353,759.2241275375293
853.471,742.9348076322487
853.589,712.0619379434185
853.707,686.6444795099992
853.824,662.4763717259306
853.942,631.6502552838531
854.06,606.5332297508667
854.178,568.5157713174474
854.296,524.6896548753703
854.413,490.5172180869729
854.531,439.32227047606455
854.649,391.6000501378834
854.767,350.17826270013506
854.884,308.1469514528627
855.002,263.3355536255036
855.12,205.2211254951141
855.238,164.3447926028197
855.355,133.1515765936421
855.473,101.50196217836611
855.591,79.40967205911849
855.708,62.48456870062169
855.826,48.71988701198386
855.944,26.56027907323677
856.062,1.4205524911964997
856.179,-7.260474117166129
856.297,-15.341813361391551
856.415,-15.458616386114048
856.532,-19.715675046936116
856.65,-28.366202528721768
856.768,-32.20932210672769
856.886,-38.69265570072728
857.003,-40.2316678662401
857.121,-37.57672342119207
857.239,-31.14804223385616
857.356,-15.196843717120528
857.474,-7.9663161676618675
857.592,-4.200430966853272
857.709,11.898134962582212
857.827,22.559910330795883
857.945,41.466752730436475
858.062,60.97770074959409
858.18,88.97156548431045
858.298,121.37636396574707
858.415,141.0920537043427
858.533,169.18024443262334
858.651,197.2727641652329
858.768,211.5211280536866
858.886,227.20066077330932
859.003,236.6559510686898
859.121,239.15972621255537
859.239,231.78125027417002
859.356,210.11359684660732
859.474,192.4372854103866
859.592,173.1315367447287
859.709,150.26388331716583
859.827,128.1044549978282
859.944,116.4861522196161
860.062,107.91546848902314
860.18,99.08071549436082
860.297,86.00786726160351
860.415,79.4562311500585
860.532,78.91844785236643
860.65,79.94516671917657
860.768,81.5511063652076
860.885,96.5587776129702
861.003,108.56211985640374
861.12,111.55593829031336
861.238,108.38092555539197
861.356,105.97128078583863
861.473,104.94085679550614
861.591,100.27839817313912
861.708,99.36745470228736
861.826,108.16127313619752
861.943,106.70227771729387
862.061,99.2432822983901
862.178,91.1262782214776
862.296,84.99628713157796
862.414,89.21607959146169
862.531,91.55881577428892
862.649,92.93791559347979
862.766,105.71182060747554
862.884,110.72988146562722
863.001,116.1011890770254
863.119,114.80669582262281
863.236,114.12345797947562
863.354,117.54844524455339
863.471,117.97343250963118
863.589,112.88499986128905
863.706,125.69267110905054
863.824,139.27436833083812
863.941,157.211043907604
864.059,162.82650736315793
864.176,162.69824787498897
864.294,154.6028888197204
864.411,142.68328734020923
864.529,124.48489798191
864.646,123.94018827729016
864.764,132.49417987137156
864.881,146.7442753615569
864.999,155.98138383875533
865.116,171.42368712114865
865.233,185.75257049012185
865.351,202.56283914048026
865.468,209.393021210752
865.586,217.82753228535262
865.703,230.29234639025628
865.821,226.12945486745448
865.938,221.71201789010735
866.056,214.0287800469594
866.173,207.4113430696124
866.29,210.69607059442984
866.408,208.4180275564768
866.525,206.39106676960608
866.643,218.05155187018136
866.76,215.04796770668736
866.878,216.19416709297684
866.995,212.0762972151971
867.112,211.14284292183308
867.23,213.9981332172136
867.347,207.57983043900117
867.465,195.31996921923042
867.582,199.1631383024899
867.699,202.51280089224292
867.817,204.18107820061044
867.934,206.17403083365332
868.051,219.71070641041922
868.169,230.39543393523712
868.286,239.01436059425419
868.404,240.32159894158303
868.521,257.96130482137926
868.638,273.57503667520166
868.756,287.4796776199331
868.873,295.0752276555736
868.99,318.27337509381147
869.108,343.7364575969843
869.225,376.2350379356549
869.342,400.7543974951045
869.46,430.89886527966246
869.577,457.79571401660144
869.694,486.9185367795144
869.812,495.83010413117194
869.929,508.94340308456106
870.046,524.6636284448765
870.164,529.2029014242395
870.281,511.4668497282777
870.398,494.44508374660177
870.516,482.92721386882187
870.633,468.92449550619347
870.75,444.731300953089
870.867,431.80130986318807
870.985,430.9726174745857
871.102,414.4157865578449
871.219,388.775838757987
871.337,371.3592675815056
871.454,354.52797779030567
871.571,328.6914931939108
871.688,299.2783852208928
871.806,279.3241517067494
871.923,264.8322558549437
872.04,242.9611392239174
872.157,217.35842086128932
872.275,199.53405747701606
872.392,186.07506205811075
872.509,170.16931339245224
872.626,152.4358590990882
872.744,139.01669052000994
872.861,119.98713233054224
872.978,100.34372132722183
873.095,84.29424971784088
873.213,72.82832789200964
873.33,63.150284854057176
873.447,56.9250556689185
873.564,48.99733569504295
873.681,39.95618878513038
873.799,22.005211069491466
873.916,3.2030607170243393
874.033,-1.2055226816758235
874.15,-4.967529141000972
874.267,-10.79152047064503
874.385,-9.266324498422337
874.502,-4.333447770687696
874.619,-0.5695208187759078
874.736,-3.638259503720641
874.853,-8.18249389084673
874.97,-5.9254616231858925
875.088,-2.850836645289789
875.205,-2.5391744696970586
875.322,-3.346027710818829
875.439,-7.4912989634812135
875.556,-12.133065878652333
875.673,-12.25539693628061
875.791,-11.123872646713798
875.908,-9.539876647002032
876.025,-7.244850541497818
876.142,-7.05597070962039
876.259,-7.065408559036651
876.376,-12.47139086793015
876.493,-19.04982073321786
876.61,-15.626575173071874
876.728,-9.825206490970526
876.845,-7.581182382120336
876.962,-4.6677473774301514
877.079,-3.5056052278846543
877.196,3.9119467319324572
877.313,3.024815576828766
877.43,0.015403611616277235
877.547,-3.5766715247630434
877.664,0.6708039612824046
877.781,-6.610562388331873
877.898,-10.297340877078087
878.016,-15.195100369867555
878.133,-16.88717269706762
878.25,-22.050466863532893
878.367,-18.834924778105076
878.484,-20.28844344624138
878.601,-8.963580583725285
878.718,-9.890871055682382
878.835,-12.212249238382523
878.952,-15.026900538950441
879.069,-18.41284007280039
879.186,-19.900640239790967
879.303,-23.398307480390958
879.42,-30.161100908468754
879.537,-29.013690537975407
879.654,-31.924634771034526
879.771,-38.19459171462933
879.888,-36.4000596873647
880.005,-39.642884695960184
880.122,-43.676083951770664
880.239,-48.49965745479619
880.356,-54.11360520503675
