wavelength_nm,intensity
792.446,228.35655708938984
792.565,195.6523146651473
792.684,166.8549986478312
792.803,141.9646090374415
792.922,120.98114583397819
793.041,93.77162202445446
793.16,77.99413284696531
793.279,79.37248782532032
793.398,89.64261769545017
793.518,109.6547389075713
793.637,147.66945752228986
793.756,184.46426271709504
793.875,211.0737865266188
793.994,222.40019345302576
794.113,211.22010687293923
794.232,188.96621076904322
794.351,162.40668695951945
794.47,135.93331033614277
794.589,114.09932765216016
794.708,108.14716314999563
794.827,112.1486783015107
794.946,119.7376393404717
795.066,127.72876488159727
795.185,140.9324445352769
795.304,152.01491206774443
795.423,148.56902462185695
795.542,142.2677259205583
795.661,132.5361241889566
795.78,125.60105925389163
795.899,112.9802800331124
796.018,103.55603760887001
796.137,96.22616747899988
796.256,90.54824540107785
796.375,87.24175189458438
796.494,83.10062635345884
796.613,79.09716314999575
796.732,76.70668695951954
796.851,72.34131899415155
796.97,69.25647050930306
797.089,65.45820211103464
797.208,72.64088609371865
797.327,87.08677353960603
797.446,100.19932765216008
797.565,119.79240124523368
797.684,134.07292072575314
797.803,129.12053977337223
797.922,121.83395968679216
798.041,106.81577786861044
798.16,98.86253111536375
798.279,92.18893804177063
798.398,89.62443587726841
798.517,96.86253111536361
798.636,103.9387215915541
798.755,103.45300730583982
798.874,111.12746618029865
798.993,111.08677353960603
799.112,122.10582115865358
799.231,126.13266098549329
799.35,124.43742289025519
799.469,122.01750947034178
799.588,116.08937094220335
799.707,110.47378652661894
799.826,104.44608089891335
799.945,96.16382981666229
800.064,103.64261769545018
800.183,117.04348349631596
800.302,126.35863501146746
800.421,141.5162107690432
800.54,160.47465232748473
800.659,164.86339691622925
800.778,173.38720644003877
800.897,171.88763934047165
801.016,168.3672930201254
801.135,170.26512851796093
801.254,164.53958739241983
801.373,173.6772497300821
801.492,175.21577786861022
801.611,177.2278990807314
801.729,188.67118912402142
801.848,187.1231371759695
801.967,166.69802895086136
802.086,140.478115530948
802.205,120.79586444869693
802.324,100.32436155980645
802.443,64.2774588041757
802.562,46.444401996001545
802.681,31.20387395008439
802.8,13.909453227471467
802.919,-5.126872605017274
803.038,-16.63858842988636
803.157,-6.92972772141986
803.276,-14.60254424065667
803.394,-24.247731905636435
803.513,-23.627667087866207
803.632,-26.03949226085814
803.751,-30.424843660613607
803.87,-30.427726463684238
803.989,-31.705367335956286
804.108,-25.484208273964153
804.227,-20.544658337564467
804.346,-24.418788296784207
804.465,-22.84167754773529
804.583,-20.61170392097167
804.702,-17.9335344304217
804.821,-15.699838351994389
804.94,-15.048822507162386
805.059,-6.0864562574754455
805.178,4.297894104419997
805.297,3.6030689298571517
805.416,11.62867487913449
805.535,17.483093500532014
805.653,21.133833912211937
805.772,32.688173195733626
805.891,46.008410070061544
806.01,64.58768479677103
806.129,88.37244961211212
806.248,129.61465955748827
806.367,161.41469009860214
806.485,190.67535761304288
806.604,209.34381733527567
806.723,226.8650909103223
806.842,226.7110398100441
806.961,218.89898005175723
807.08,204.8263142328642
807.198,199.6826527429755
807.317,177.75803887213445
807.436,168.0204379883064
807.555,158.88630030794153
807.674,163.54350461891858
807.793,175.2639123930991
807.912,194.62414700710644
808.03,230.69260672933885
808.149,265.72470281520765
808.268,295.11697206124967
808.387,313.91270451075485
808.506,317.2245807201002
808.624,312.4299850862816
808.743,298.4207509405196
808.862,281.1833889018309
808.981,266.8257014203134
809.1,241.1641387124173
809.219,230.59090857035034
809.337,212.97960406770562
809.456,200.06702174127963
809.575,198.12066772124717
809.694,204.98341524551736
809.812,211.03378827711484
809.931,218.52475882185843
810.05,228.87200642287905
810.169,241.3058341104799
810.288,251.512821971241
810.406,257.1830132952057
810.525,262.1224686884345
810.644,265.8982877180271
810.763,263.25073012424303
810.882,276.46204698933343
811.0,280.26557164663177
811.119,283.97645561128957
811.238,307.64145213006
811.357,324.0657560081379
811.475,334.6969862931422
811.594,344.2710737210035
811.713,358.6027369064402
811.832,371.27639143386796
811.95,363.964764576014
812.069,353.20205546707757
812.188,366.1692164880111
812.307,369.78226495483204
812.425,371.29574632208585
812.544,378.06810214821417
812.663,391.89327182715624
812.782,403.3097834974401
812.9,411.8128752543041
813.019,417.07614017134136
813.138,440.05195920093286
813.257,453.60873061147674
813.375,464.8018656583845
813.494,472.95517386546544
813.613,481.9742829383473
813.731,479.57001538785244
813.85,482.9518950235048
813.969,480.5961123214948
814.088,480.7476889268444
814.206,476.0706941036226
814.325,476.5408854275872
814.444,474.6292585697338
814.562,477.68559707984593
814.681,471.9419355899582
814.8,479.38182388362014
814.918,473.3533139088838
815.037,463.68064808999145
815.156,461.4149086780256
815.274,462.5933251102157
815.393,458.23234760301193
815.512,459.1570843815225
815.631,461.80303328124535
815.749,473.6827484147343
815.868,478.2455804313402
815.987,483.6491050886388
816.105,486.68120117450894
816.224,478.6457647928467
816.343,462.02591282676906
816.461,433.1056279602585
816.58,405.824304132709
816.698,387.5092140713932
816.817,372.7265915425449
816.936,356.67383914356674
817.055,342.9942469177485
817.173,322.99084516812087
817.292,308.6740235050733
817.41,294.9632624480864
817.529,278.46808580668414
817.648,272.437844230217
817.766,271.3409359870833
817.885,274.2873177872397
818.004,280.46400261769907
818.122,288.65627186374286
818.241,297.94897401021956
818.359,309.40760346632
818.478,308.242059430601
818.597,288.8157312317992
818.715,287.38610210793206
818.834,314.62662900190674
818.953,421.55464475768474
819.071,588.7187606675743
819.19,787.5855386177475
819.308,961.462829255443
819.427,1059.7881991134013
819.546,1016.3257189188787
819.664,882.8843714269753
819.783,694.2643433296405
819.901,534.991566965527
820.02,399.59327035339004
820.138,319.25037953682346
820.257,276.3144257623949
820.376,248.18124901044487
820.494,211.1432152261866
820.613,186.24890438565131
820.731,180.96931215983457
820.85,183.11223075652856
820.969,200.11229221036538
821.087,232.95131470316318
821.206,270.9886055942294
821.324,286.5055501649494
821.443,285.8112393244139
821.561,276.72818389513407
821.68,258.72391634464213
821.798,229.407960482462
821.917,208.25390938218686
822.035,200.61847300052665
822.154,191.177841813672
822.273,184.14500283460953
822.391,174.8974452408284
822.51,178.3148227119824
822.628,176.10622615716227
822.747,182.5660278707403
822.865,186.02236638085512
822.984,192.0553282675935
823.102,189.80084426688614
823.221,194.08662000643844
823.339,195.2304044039995
823.458,208.99583382320583
823.576,204.48940177055078
823.695,220.03838097330703
823.813,223.31809610679932
823.932,219.23763808011853
824.05,209.41951771577544
824.169,201.4325661826012
824.287,194.75816876198118
824.406,197.24481030240003
824.524,188.42842153978847
824.643,193.1999115650557
824.761,190.39737561629704
824.88,187.14116001385872
824.998,187.4451175715936
825.117,194.6746162548696
825.235,200.68506731909787
825.354,196.3275530153607
825.472,188.00120754279232
825.591,181.23157202693397
825.709,174.77622222536127
825.828,178.89749580041212
825.946,185.67591223260592
826.064,195.29848450895554
826.183,193.90720397145253
826.301,191.94016585819213
826.42,186.09693726874139
826.538,189.66409828968034
826.657,191.93688701624677
826.775,196.04171037484798
826.894,191.37510516202053
827.012,179.86261250330557
827.13,171.34146183593248
827.249,164.94325489150293
827.367,155.63682283884827
827.486,163.85160290740555
827.604,172.35296306254276
827.723,185.96427992763665
827.841,192.27256648970013
827.959,205.19210846301894
828.078,225.1670616917488
828.196,245.56279414125794
828.315,267.0096088418494
828.433,286.10317678919415
828.552,286.4348399746341
828.67,280.4097932033641
828.788,239.85534906164827
828.907,199.31899213244503
829.025,153.3710123375992
829.143,113.27377372114995
829.262,82.20808316230577
829.38,67.91794014224666
829.499,63.7107052389687
829.617,63.76815230343001
829.735,67.15864099436878
829.854,84.83074751537697
829.972,109.02246811997654
830.091,141.699774687601
830.209,190.04164415646488
830.327,258.69744716894763
830.446,334.13857775353245
830.564,385.7456869814158
830.682,421.4471685036714
830.801,428.43349851077573
830.919,396.56701466506627
831.037,340.2546433734695
831.156,271.67820281780354
831.274,216.59873195910728
831.392,172.33917452032443
831.511,144.24152184344644
831.629,128.33780856050797
831.747,127.46612990960425
831.866,125.75029541454458
831.984,131.33662542164933
832.102,130.0350326568322
832.221,124.08810260449592
832.339,109.26034142896103
832.457,101.81262282814579
832.576,86.31794152217115
832.694,81.46090891971794
832.812,75.56141963942596
832.93,75.3258450623581
833.049,80.44618918176602
833.167,75.51614803603125
833.285,72.9963620268789
833.404,80.184660362492
833.522,85.64310777512215
833.64,100.63631985624178
833.759,112.85379150325457
833.877,124.6625643985587
833.995,138.3647786461799
834.113,145.81081354930765
834.232,158.0473246429114
834.35,177.6249612776406
834.468,195.30216501193672
834.586,211.01573238259652
834.705,219.93536035931686
834.823,211.86884114988996
834.941,197.78067691881807
835.059,181.71502351025728
835.178,171.204348456675
835.296,168.34475565417506
835.414,178.30507627158863
835.532,195.4480808716864
835.651,204.94086902156775
835.769,211.41980435759632
835.887,223.0684366633219
836.005,237.07377892575738
836.124,254.72067962975132
836.242,268.99095695712174
836.36,293.30452432778236
836.478,311.1973124776637
836.596,326.5004902379345
836.715,338.55518314972073
836.833,343.11983277146373
836.951,357.91565122437555
837.069,371.7954523612702
837.188,381.0354266583381
837.306,404.07280355280864
837.424,416.15520209230067
837.542,432.3986395928317
837.66,443.3312545825405
837.779,445.4543457627258
837.897,448.8077399732141
838.015,455.82606924863757
838.133,456.38379246345505
838.251,465.53458927134596
838.369,465.56071075456146
838.487,464.5089101598548
838.606,461.21901432705306
838.724,455.11007087520375
838.842,449.72320534543235
838.96,436.8523571316783
839.078,426.1113790477943
839.196,434.43706763057673
839.315,439.89695534755816
839.433,446.663336571033
839.551,447.7370771018672
839.669,448.9025925244764
839.787,445.9694066483843
839.905,430.57907791514947
840.023,421.4562816494473
840.142,428.7300221802821
840.26,418.30765881501304
840.378,415.7788019432504
840.496,409.57462039616314
840.614,404.9236856023225
840.732,392.34288067861166
840.85,383.79411038693536
840.968,373.3518336017527
841.087,378.8541455611585
841.205,377.48199864610547
841.323,387.8977305189311
841.441,409.32471780301205
841.559,434.37594751133554
841.677,453.38215557463747
841.795,474.9771082266842
841.913,490.08894399561433
842.031,509.17047673424133
842.149,515.4805809014398
842.267,516.4919837699368
842.385,522.7536030886499
842.504,527.8463912385317
842.622,534.7919932412274
842.74,541.6873787937064
842.858,547.5065738699952
842.976,546.8911369116521
843.094,547.6497259273351
843.212,546.2368863715895
843.33,553.0231810149783
843.448,567.7800384289299
843.566,580.4269391329249
843.684,587.3924545555349
843.802,599.4661950863699
843.92,596.5511910284604
844.038,605.5340224683864
844.156,608.7636071550658
844.274,623.8252264737797
844.392,636.724941030589
844.51,637.4913222540649
844.628,623.7183095381471
844.746,607.7452968222291
844.864,576.9835395175666
844.982,546.0676696587914
845.1,511.8366482848644
845.218,489.1493498546603
845.336,451.93997350237805
845.454,412.55051057000924
845.572,377.0545541311468
845.69,345.8780782117648
845.808,315.49727328805363
845.926,293.67577572364985
846.044,283.3460530510207
846.162,273.4024775645389
846.28,249.83379385294907
846.398,229.2010408772901
846.516,214.08690262024575
846.634,189.5415955320325
846.752,164.46814991568058
846.87,145.27868698331122
846.988,131.86472498082156
847.106,108.90053358725471
847.224,93.53499002615568
847.342,83.81086269273557
847.46,82.74792405672298
847.578,80.14950942343287
847.696,83.5843351155846
847.814,94.92069760750101
847.932,100.79746919610416
848.05,100.27784214089691
848.168,111.41260239821105
848.285,118.58482930579044
848.403,127.23064928696274
848.521,138.49465108631668
848.639,151.69112041813798
848.757,175.78023044259993
848.875,188.46934046706178
848.993,203.1922167252897
849.111,217.93067739910208
849.229,226.84229824607473
849.347,231.8699364090647
849.465,229.5166221911024
849.582,230.52261533244751
849.7,236.71388985907387
849.818,243.98481806535378
849.936,248.95964237552977
850.054,257.13966149090066
850.172,271.4937065802975
850.29,280.4728598948028
850.408,278.3559093132044
850.525,283.75584184848924
850.643,297.69170511970464
850.761,309.48817445152594
850.879,318.2673277660311
850.997,321.9841434181983
851.115,329.37714954655587
851.233,328.97361887837656
851.35,330.48675487686387
851.468,344.3713194467798
851.586,376.7333731941849
851.704,418.09932304548613
851.822,467.102069433584
851.94,514.8610928779589
852.057,577.9833197855373
852.175,640.2323865199555
852.293,692.2870809600015
852.411,744.0404766987489
852.529,791.6057771994011
852.647,842.747701076677
852.764,878.2601877245158
852.882,901.7432371429177
853.0,927.7362432712763
853.118,943.1353100056957
853.236,931.2183594240979
853.353,913.758551699643
853.471,887.9896530660974
853.589,865.3454297572271
853.707,829.9358384829887
853.824,787.1695372520404
853.942,754.1244481423041
854.06,716.6023027555116
854.178,662.8914127799745
854.296,613.4852847091993
854.413,565.5899791492468
854.531,519.0799549745757
854.649,463.2028312328051
854.767,411.6140191793464
854.884,371.0018305025112
855.002,320.837260873295
855.12,266.6683622397498
855.238,219.3695934763344
855.355,173.2284004704947
855.473,136.73309491054218
855.591,93.28151037852822
855.708,62.85916443072929
855.826,47.164930287962164
855.944,27.24519995787268
856.062,16.587125480146085
856.179,8.383466060189905
856.297,-9.87369921566766
856.415,-20.98580200716534
856.532,-33.62212839983877
856.65,-40.77738962224184
856.768,-39.687677673816395
856.886,-42.75196153346662
857.003,-41.65274272766306
857.121,-44.10243373383527
857.239,-43.81960101600195
857.356,-33.718004119106425
857.474,-21.57936685394305
857.592,-4.403788147522751
857.709,19.647224494843204
857.827,45.86651909104228
857.945,74.5423326142923
858.062,95.3834575202455
858.18,134.19308623436342
858.298,164.3036718274907
858.415,190.60108531586116
858.533,215.2404901462229
858.651,238.1526222493119
858.768,254.4223301099767
858.886,265.860003338607
859.003,268.73577180533243
859.121,274.26435412487183
859.239,264.60678925826414
859.356,249.36134560377752
859.474,231.49598852937734
859.592,215.19080461515017
859.709,188.45618347148582
859.827,162.29472250098155
859.944,140.84321824043394
860.062,124.43933302750551
860.18,106.9246253037546
860.297,93.4930344631203
860.415,90.67269903374118
860.532,95.86967962167792
860.65,90.84847839143279
860.768,92.48355421746463
860.885,103.22945255431918
861.003,107.6420175578406
861.12,110.98964749642717
861.238,116.45242895016526
861.356,117.01997230866522
861.473,119.21781869746818
861.591,115.60181227241821
861.708,115.95030801187022
861.826,121.68841414093257
861.943,117.1840960275705
862.061,112.8598644942949
862.178,107.90532993071619
862.296,99.19581701215904
862.414,100.57634738364524
862.531,98.19237559062935
862.649,96.60234319155288
862.766,100.64174802191373
862.884,103.91491908604065
863.001,111.22878279086024
863.119,113.80152095455408
863.236,118.47642362041245
863.354,127.47167260661718
863.471,119.42363154953196
863.589,120.16952988638617
863.706,125.70763601544827
863.824,137.31327461204285
863.941,148.5578742475986
864.059,153.1479284286089
864.176,150.3656882373249
864.294,147.0172142798071
864.411,131.05488750843654
864.529,125.05273389723908
864.646,123.014216649678
864.764,133.67353489995247
864.881,148.0869657043395
864.999,160.21727962560965
865.116,177.20213900142525
865.233,205.38440097464348
865.351,228.1580049392037
865.468,241.023383795539
865.586,249.5788059419176
865.703,260.60262635669454
865.821,261.82904417406877
865.938,250.5368472728282
866.056,243.51564604258334
866.173,238.56630628419984
866.29,238.16934747819724
866.408,239.4174103172163
866.525,245.2949103856726
866.643,253.52479140650996
866.76,262.4144126870874
866.878,262.12134998498084
866.995,257.4421400967268
867.112,245.96812501366753
867.23,242.07073330723148
867.347,243.65732428477793
867.465,243.08547370388283
867.582,247.5621079714727
867.699,256.8283526286729
867.817,257.2928656841416
867.934,263.48032246255417
868.051,275.7552251284128
868.169,293.42493298907675
868.286,311.74572310082283
868.404,324.44659979265543
868.521,339.9621950992067
868.638,350.04748737545475
868.756,360.11373203265504
868.873,373.65443556431404
868.99,402.5050958059298
869.108,435.43194652373586
869.225,478.9882344709793
869.342,515.7159509896514
869.46,564.6886891533452
869.577,604.752336407948
869.694,635.336329982897
869.812,645.593916631439
869.929,647.5865682150461
870.046,653.4389600583934
870.164,655.1545553649444
870.281,640.6337870351317
870.398,635.0021961944965
870.516,623.1628131460691
870.633,598.3771097513213
870.75,565.9134842786514
870.867,529.065443221566
870.985,508.76978311686173
871.102,481.6914390294733
871.219,454.0858222148123
871.337,431.4672183871643
871.454,421.38800849891015
871.571,413.8274133292706
871.688,393.3508008436138
871.806,360.78154766531645
871.923,346.6174892922139
872.04,312.141742607423
872.157,272.492835749472
872.275,239.5746648222569
872.392,221.63744627599402
872.509,205.4872407167441
872.626,187.1482905687496
872.744,171.4041456155603
872.861,167.79593139830172
872.978,144.20589899922516
873.095,122.82452460880688
873.213,109.38254415778269
873.33,82.68833757608647
873.447,59.632700218590045
873.564,36.12632107438111
873.681,24.52570112065819
873.799,17.896863457252614
873.916,6.751004069079501
874.033,6.280553792482646
874.15,6.279980207229572
874.267,-8.750013952211747
874.385,-9.07013812256304
874.502,-25.754860732280186
874.619,-24.320482344167367
874.736,-26.59268660795675
874.853,-27.797856188230067
874.97,-23.985628256143407
875.088,-12.807419377603859
875.205,-9.845510100273739
875.322,1.9731540706049921
875.439,0.9822598197344874
875.556,-1.9841049750035014
875.673,-12.513626583712345
875.791,-18.05141889890263
875.908,-22.241960792562345
876.025,-20.730053057448487
876.142,-24.296386481910496
876.259,-18.077819805478853
876.376,-12.539269942417388
876.493,-9.2052168081017
876.61,-2.4593545397837038
876.728,3.0175242853522732
876.845,8.823858867182368
876.962,-0.49533243899787155
877.079,-3.5325709494263395
877.196,-9.619748131086958
877.313,-10.793384236435289
877.43,-14.963568559192753
877.547,-13.267038602748928
877.664,-15.299310249220047
877.781,-22.657355051733717
877.898,-24.93275706171006
878.016,-13.947906993617305
878.133,-9.463949627098758
878.25,-2.79050241580652
878.367,-5.829188235397494
878.484,-1.480073788020038
878.601,-6.754856369412367
878.718,-15.4496748965949
878.835,-25.728899160234462
878.952,-26.976839187786002
879.069,-33.05332993698376
879.186,-37.614318562124154
879.303,-38.75422760608685
879.42,-26.978155483362677
879.537,-16.407244830366785
879.654,-14.125021063739961
879.771,-18.21351483098691
879.888,-17.952724718305173
880.005,-21.587311942894868
880.122,-27.82364505033502
880.239,-36.661724040625685
880.356,-48.10154891376685
