wavelength_nm,intensity
792.446,0.23596380826434663
792.565,0.1925610781269208
792.684,0.15749514334983167
792.803,0.13076600393307922
792.922,0.11237365987666334
793.041,0.09847959981596763
793.16,0.09612743191214432
793.279,0.10531865055628327
793.398,0.11929404228525584
793.518,0.13764208247950277
793.637,0.16109255794149385
793.756,0.1850494082177436
793.875,0.19704178080432
793.994,0.20714836477538576
794.113,0.19919567058154303
794.232,0.1844758565807624
794.351,0.17126906612138154
794.47,0.15962593668482622
794.589,0.15271283608555797
794.708,0.14668741663658663
794.827,0.14424383638582403
794.946,0.15339196875062383
795.066,0.15887956028945646
795.185,0.16649270586790052
795.304,0.1828533238401305
795.423,0.17989787796386983
795.542,0.1757277426235257
795.661,0.15915142433384144
795.78,0.14205286888631907
795.899,0.13248648627836165
796.018,0.12607121923142406
796.137,0.12135322294745979
796.256,0.12560599204766554
796.375,0.11604568137106576
796.494,0.11570446207801025
796.613,0.11330398090461011
796.732,0.10633081425204399
796.851,0.1058906056761754
796.97,0.1059294053717823
797.089,0.1063695083729446
797.208,0.12125232762040766
797.327,0.12720652039389324
797.446,0.1379379062758113
797.565,0.15524095314407765
797.684,0.1625904193361402
797.803,0.1669004164623747
797.922,0.16112806397362045
798.041,0.15579741674453287
798.16,0.15308588647642474
798.279,0.1472085984839927
798.398,0.14346601588323715
798.517,0.14672360752200597
798.636,0.1476055081647221
798.755,0.15391294040165904
798.874,0.15344532165986857
798.993,0.15232612665105588
799.112,0.14993001298411837
799.231,0.145437629604177
799.35,0.13963477260853938
799.469,0.1351838753579588
799.588,0.13267794546624212
799.707,0.13649010904014455
799.826,0.13784910017051144
799.945,0.13885362893089725
800.064,0.14314776371355215
800.183,0.15297602613493166
800.302,0.1636712266419278
800.421,0.17151120530466965
800.54,0.1776673351874667
800.659,0.18371242866520954
800.778,0.19310935735926288
800.897,0.19610033960787399
801.016,0.1956723767250318
801.135,0.20708565332405549
801.254,0.20730499607727187
801.373,0.2116619701441064
801.492,0.21061049514057456
801.611,0.22012151069037078
801.729,0.22783581078475484
801.848,0.224958946089341
801.967,0.2091115650672505
802.086,0.19070119537684543
802.205,0.16897315551783887
802.324,0.1490486582203723
802.443,0.11917747690973557
802.562,0.10278597401836775
802.681,0.08959618228415234
802.8,0.07301142951683681
802.919,0.058974346875243305
803.038,0.056964340711638084
803.157,0.06083857254301485
803.276,0.05829567261580859
803.394,0.051732097958256805
803.513,0.049624839895990584
803.632,0.045116880592139114
803.751,0.03870903954688788
803.87,0.041949078950726935
803.989,0.046737437745643554
804.108,0.04946210108048686
804.227,0.05279115844051826
804.346,0.05433926778671036
804.465,0.056649505711344236
804.583,0.06052750098228149
804.702,0.06598442710407748
804.821,0.07271199224922775
804.94,0.0676515959844894
805.059,0.06622936707178442
805.178,0.06949968402640311
805.297,0.07062234762888901
805.416,0.07659666822736594
805.535,0.08861705883792281
805.653,0.09410793455998118
805.772,0.10158138938779004
805.891,0.104821577469903
806.01,0.11815413002772567
806.129,0.14587939766435953
806.248,0.17265036636382142
806.367,0.20001861330805343
806.485,0.2196362751434377
806.604,0.23773664280645856
806.723,0.24816146644756407
806.842,0.24792374475276524
806.961,0.2478153621671505
807.08,0.2438786639677119
807.198,0.23691896913616217
807.317,0.22458743064250575
807.436,0.2126365883947499
807.555,0.21173081799921206
807.674,0.2095609408384403
807.793,0.21272386157096496
807.912,0.23159355289757652
808.03,0.2531043244301233
808.149,0.2802504985642462
808.268,0.30552430606588693
808.387,0.32365822868647864
808.506,0.3340757312459316
808.624,0.3274314530155521
808.743,0.31382482613418317
808.862,0.303025834066331
808.981,0.28887988750326965
809.1,0.27922298417311936
809.219,0.2751783000193143
809.337,0.2698487660355949
809.456,0.26988497481260554
809.575,0.2674246947463066
809.694,0.26595764142411993
809.812,0.2701949308890653
809.931,0.2806996763382038
810.05,0.29981462390015456
810.169,0.32168717888433396
810.288,0.3306898824145508
810.406,0.33244715546990344
810.525,0.3288124518886064
810.644,0.319233030005939
810.763,0.3141981695587097
810.882,0.3226713148494365
811.0,0.33512834873909103
811.119,0.35047904015167247
811.238,0.361225381295325
811.357,0.36857352037220464
811.475,0.37462948853751776
811.594,0.37452476649272826
811.713,0.3767524190442174
811.832,0.3811654144688089
811.95,0.38067267509646696
812.069,0.37078332742386744
812.188,0.3684902120552873
812.307,0.36449921583359624
812.425,0.355969148987706
812.544,0.3468039783085106
812.663,0.34408502002384334
812.782,0.33923196643763726
812.9,0.3389680108669184
813.019,0.33812324948514594
813.138,0.34990491359240905
813.257,0.36418611699367
813.375,0.3756529745899
813.494,0.3918992783245677
813.613,0.40906254753614046
813.731,0.4178871047461603
813.85,0.4289726560063523
813.969,0.4421642384217508
814.088,0.44780290493290364
814.206,0.4549277510193992
814.325,0.463685198314276
814.444,0.4700669546131002
814.562,0.4713849627693367
814.681,0.47976659453941417
814.8,0.4904909724381107
814.918,0.49173760004824063
815.037,0.48854887235757377
815.156,0.4898418668181661
815.274,0.4870246840213348
815.393,0.48207340592296477
815.512,0.4797717492924573
815.631,0.487817831486821
815.749,0.49069889057574523
815.868,0.49007681209421905
815.987,0.4977202347977265
816.105,0.4944985622396261
816.224,0.4814105119752691
816.343,0.4659760550414671
816.461,0.4451136261528934
816.58,0.4269514562136081
816.698,0.40862273166674123
816.817,0.40039099889816676
816.936,0.3934538774017092
817.055,0.37959772365403605
817.173,0.36721676785922774
817.292,0.35530741174083164
817.41,0.3451093584585751
817.529,0.33497048391967177
817.648,0.3309123777828372
817.766,0.3296985118677791
817.885,0.3276579738161899
818.004,0.3232820107176335
818.122,0.3270678334807083
818.241,0.33422135380367285
818.359,0.3410156156063249
818.478,0.34103279581224877
818.597,0.3261078221412691
818.715,0.3336211354491191
818.834,0.34090914298547703
818.953,0.43846754110470865
819.071,0.5551653341160354
819.19,0.7011876517883696
819.308,0.8197444192947392
819.427,0.884015128873833
819.546,0.8502020696725543
819.664,0.7619043536244464
819.783,0.6205806751447782
819.901,0.5275516334599836
820.02,0.4183710874659077
820.138,0.35647882369990447
820.257,0.31784059388027497
820.376,0.2994616499295766
820.494,0.2754011285393825
820.613,0.26960975632145245
820.731,0.2688906735080373
820.85,0.27238975390641157
820.969,0.2852238235011395
821.087,0.31196489778385394
821.206,0.3441687191591867
821.324,0.3620000370714975
821.443,0.36197645701501646
821.561,0.3601183359145883
821.68,0.33708520631621597
821.798,0.30487754122769484
821.917,0.2740645421938671
822.035,0.2574940974237394
822.154,0.24235431402642726
822.273,0.2292272179932593
822.391,0.2388546538244403
822.51,0.2684613214837497
822.628,0.2854799993326961
822.747,0.2992151720607499
822.865,0.3059660328928585
822.984,0.3013075980605654
823.102,0.28064466864700666
823.221,0.2581264551248202
823.339,0.2596250499618036
823.458,0.2706953489685533
823.576,0.27438233712932736
823.695,0.28316540820998526
823.813,0.2899498239996651
823.932,0.2855195628788573
824.05,0.274667492969028
824.169,0.2670794052956859
824.287,0.2656538381028595
824.406,0.26478101257475417
824.524,0.2665053407626725
824.643,0.2675225744810418
824.761,0.2686868399225873
824.88,0.2669531772102423
824.998,0.27009657505836066
825.117,0.27674982146844374
825.235,0.277712757164561
825.354,0.2739066182545806
825.472,0.27331199382924865
825.591,0.27428347078729276
825.709,0.26799975582827
825.828,0.2678834420708641
825.946,0.2689732765156144
826.064,0.2706597791149974
826.183,0.2642235416215596
826.301,0.2589464753896781
826.42,0.261562755358857
826.538,0.2587413019310619
826.657,0.2584267088789167
826.775,0.2653313124257163
826.894,0.2658513226818918
827.012,0.2687799688015535
827.13,0.2650574122404331
827.249,0.26219203232272653
827.367,0.25387183648419137
827.486,0.24626422592644454
827.604,0.24483255783224184
827.723,0.2519506929272228
827.841,0.2575063871796534
827.959,0.27293639031013023
828.078,0.29160902252227605
828.196,0.31211985631919503
828.315,0.32258860645021104
828.433,0.3283346488255918
828.552,0.3246017207321309
828.67,0.3095467398639538
828.788,0.2720313349268104
828.907,0.23859862362487572
829.025,0.2064117403722628
829.143,0.18131394718522215
829.262,0.15879920001061232
829.38,0.14522792934629547
829.499,0.14186013571377193
829.617,0.13812335487857125
829.735,0.1427132492744036
829.854,0.1603076354019763
829.972,0.18525648414827417
830.091,0.22495617465306236
830.209,0.27328465508393374
830.327,0.32837321730738017
830.446,0.38848729453870295
830.564,0.44218810424293153
830.682,0.4790510362378492
830.801,0.4850458476276621
830.919,0.46275993068619103
831.037,0.422570308564915
831.156,0.3721031079845988
831.274,0.31760870240558126
831.392,0.2783012706233635
831.511,0.25515146604696437
831.629,0.24063321673819543
831.747,0.23518517750603513
831.866,0.2317040688776944
831.984,0.23308476855637555
832.102,0.2341585928958131
832.221,0.220275124630804
832.339,0.2075876482286409
832.457,0.2035017348977891
832.576,0.19734574420277226
832.694,0.19339256285522102
832.812,0.18767312903206013
832.93,0.1911714493192485
833.049,0.18793100237984772
833.167,0.17671833935813838
833.285,0.17494729528789915
833.404,0.17832949427651948
833.522,0.18475726082342925
833.64,0.1908309867565312
833.759,0.2014442573849958
833.877,0.22106627352222052
833.995,0.23549283528810894
834.113,0.25198394207984287
834.232,0.27168717344636306
834.35,0.2836605627687162
834.468,0.2967638390260179
834.586,0.30386626868928435
834.705,0.3112566608975268
834.823,0.3110282474666566
834.941,0.3044304929986036
835.059,0.2964283110336544
835.178,0.28835230816204804
835.296,0.280504479001927
835.414,0.2769638862136937
835.532,0.2859679668360495
835.651,0.2990090138993094
835.769,0.3134026307977641
835.887,0.3266529387782419
836.005,0.3453568424992729
836.124,0.36535474740228335
836.242,0.3762568184429032
836.36,0.38422801646219884
836.478,0.39907615051321127
836.596,0.40553432499110714
836.715,0.4200560608184707
836.833,0.4283011893095761
836.951,0.4427369024275295
837.069,0.45764543540217034
837.188,0.4663951084371214
837.306,0.4787583453574398
837.424,0.4902473231104895
837.542,0.4915996532262987
837.66,0.495193454507875
837.779,0.4960668638656201
837.897,0.49476896242342894
838.015,0.49827674099559494
838.133,0.49630774040197645
838.251,0.5024694110729685
838.369,0.5056904472804339
838.487,0.5021876800807352
838.606,0.5022429585638768
838.724,0.5065963220668414
838.842,0.4995483210771936
838.96,0.4918835189583707
839.078,0.48071557926909736
839.196,0.48629583403889853
839.315,0.4912269529022283
839.433,0.49187584908931414
839.551,0.49888981568261925
839.669,0.5042473875521741
839.787,0.49726405611711855
839.905,0.48407610798204875
840.023,0.4742631784885206
840.142,0.4699557023972469
840.26,0.45932952275021627
840.378,0.44826041766324376
840.496,0.4420037035821428
840.614,0.4400835101995373
840.732,0.43061284127323707
840.85,0.42425851277011023
840.968,0.4241887227750313
841.087,0.43480405145095025
841.205,0.4426349287385835
841.323,0.45689005517578907
841.441,0.47259414568993996
841.559,0.4914883975339211
841.677,0.4977977100182276
841.795,0.5114708104641044
841.913,0.5203437217068632
842.031,0.5377054271250394
842.149,0.5481163756048415
842.267,0.5549582967793258
842.385,0.5608222434631391
842.504,0.5675201833651353
842.622,0.5675846132003417
842.74,0.57215089816135
842.858,0.5744586294327367
842.976,0.5705605238238339
843.094,0.5630769184758964
843.212,0.5505667804837685
843.33,0.5475996724249368
843.448,0.5479557253459456
843.566,0.5461746325147272
843.684,0.5556350605600539
843.802,0.5704697726280378
843.92,0.5714847228977207
844.038,0.5753823490678527
844.156,0.5748360786752604
844.274,0.5859169061262152
844.392,0.5948862116107245
844.51,0.5947993390917914
844.628,0.5933940617853725
844.746,0.589526460683353
844.864,0.5629372725844184
844.982,0.5350272393374472
845.1,0.49977355110344845
845.218,0.47726891647615544
845.336,0.4545141448924213
845.454,0.43890169855028643
845.572,0.4223930297959274
845.69,0.40936187482623715
845.808,0.3799412583984171
845.926,0.35799790669777254
846.044,0.3366939294613969
846.162,0.3208045021967643
846.28,0.2979411345685268
846.398,0.2843377150497106
846.516,0.26375974507715205
846.634,0.2456556906128095
846.752,0.22205960472924108
846.87,0.20572054103315243
846.988,0.19780499186775174
847.106,0.18619307687983316
847.224,0.1702087980725845
847.342,0.1637621459507955
847.46,0.15345272019752068
847.578,0.15019667303755935
847.696,0.15112501355215607
847.814,0.15849518176622235
847.932,0.17287390145011028
848.05,0.1830774038397175
848.168,0.18890999763955993
848.285,0.1993554640128613
848.403,0.20628989008001836
848.521,0.2096333255969018
848.639,0.21611994550301566
848.757,0.2216895999322248
848.875,0.2319160723822018
848.993,0.23224688279931452
849.111,0.22649570463408297
849.229,0.22953531526241122
849.347,0.22779059903120047
849.465,0.22193875599325463
849.582,0.22000491181936882
849.7,0.21491934199432533
849.818,0.21657404801016258
849.936,0.21122247888509885
850.054,0.21118723521961463
850.172,0.2220976187139096
850.29,0.22894968261248239
850.408,0.23356637624666463
850.525,0.2404227107762011
850.643,0.2502873997745448
850.761,0.2584157722411048
850.879,0.26292447992092083
850.997,0.26480552937783025
851.115,0.2724940268551365
851.233,0.2754500551346052
851.35,0.27439840129977744
851.468,0.2895763653070124
851.586,0.31969482669543203
851.704,0.35326090745177485
851.822,0.3960326382952871
851.94,0.4439986765708469
852.057,0.5065446489562336
852.175,0.5646753990153668
852.293,0.6132600686905153
852.411,0.6697679789834696
852.529,0.7194916869456318
852.647,0.7517948811170166
852.764,0.7754213733505839
852.882,0.7954208797157558
853.0,0.8128543469619247
853.118,0.8166620610735691
853.236,0.8023684008008063
853.353,0.7895566494724227
853.471,0.7654130839271203
853.589,0.7356060516339091
853.707,0.7023215055560292
853.824,0.6762134497674578
853.942,0.6575051772585787
854.06,0.6316429877954849
854.178,0.5995157827087485
854.296,0.5651202624901881
854.413,0.5293123836029421
854.531,0.48743471793610516
854.649,0.4445223393957948
854.767,0.4024335825413269
854.884,0.3653860004943533
855.002,0.3181126976500407
855.12,0.2769604291568827
855.238,0.23651403495299866
855.355,0.20594438998771153
855.473,0.171590918572975
855.591,0.15013582010406307
855.708,0.12466374141732073
855.826,0.10673587481316162
855.944,0.0871202975698219
856.062,0.07778311693140266
856.179,0.06645000629605959
856.297,0.05845256832106981
856.415,0.055757318467904514
856.532,0.05232168059808871
856.65,0.043512003758946684
856.768,0.03966963985897718
856.886,0.03365852717076269
857.003,0.03313094055400922
857.121,0.03348811876896208
857.239,0.03801812393268843
857.356,0.05427916418777995
857.474,0.062108411561816526
857.592,0.08191856465475411
857.709,0.10397935532484573
857.827,0.12330282770826329
857.945,0.1432172947700677
858.062,0.1689835867506222
858.18,0.19594607770595232
858.298,0.2211388486081054
858.415,0.23637495363186484
858.533,0.25932564844634975
858.651,0.27703139834736146
858.768,0.2855418696935439
858.886,0.3033800091544281
859.003,0.3158993827951821
859.121,0.3195645182680592
859.239,0.31498977634168435
859.356,0.2991552108346347
859.474,0.28117190786274215
859.592,0.2552861073377242
859.709,0.23280705014140632
859.827,0.21528619549386085
859.944,0.1919944982341783
860.062,0.17477075748367385
860.18,0.1608537052792931
860.297,0.15157028767044903
860.415,0.14924189763094237
860.532,0.15021531541645805
860.65,0.15783017444055342
860.768,0.15802389703013825
860.885,0.1676917093674635
861.003,0.17794398805666822
861.12,0.1783146367861748
861.238,0.17423345778116775
861.356,0.16812555933885037
861.473,0.170244726402894
861.591,0.16668883500641346
861.708,0.1621775424543555
861.826,0.17070997704549365
861.943,0.1731457808909836
862.061,0.17038971766497685
862.178,0.16214528356057023
862.296,0.15883952912053106
862.414,0.16092148068617784
862.531,0.15907994257652577
862.649,0.149806896500023
862.766,0.1548624273966308
862.884,0.14775398112854995
863.001,0.1481947902238885
863.119,0.14489757704577705
863.236,0.14925699509531337
863.354,0.16022734987654624
863.471,0.16999887753727494
863.589,0.17104611622944882
863.706,0.18250881375177438
863.824,0.1846047973905879
863.941,0.19282791628193274
864.059,0.19211748528750505
864.176,0.18893618923554958
864.294,0.18625333682606346
864.411,0.1778905452349518
864.529,0.16703675561176956
864.646,0.1686550386727948
864.764,0.17706545523640194
864.881,0.18960435176156226
864.999,0.2030840072789962
865.116,0.2196507188929958
865.233,0.23808308614796336
865.351,0.2511820454194969
865.468,0.25980538344114823
865.586,0.26953725524293004
865.703,0.2727094378845789
865.821,0.26471941136757876
865.938,0.25583926333973084
866.056,0.2557291610407623
866.173,0.254026723482498
866.29,0.2564063990353246
866.408,0.2667172463777467
866.525,0.2760818439166563
866.643,0.2827449623260021
866.76,0.28643389131424946
866.878,0.28403351063850046
866.995,0.28251593039194706
867.112,0.2743074916056635
867.23,0.2719113815608779
867.347,0.2742202866577355
867.465,0.2726941651492549
867.582,0.27364195914899014
867.699,0.2794436302839578
867.817,0.2785709153129123
867.934,0.2839955507428054
868.051,0.2948554792091219
868.169,0.30693680813103613
868.286,0.31748437044687017
868.404,0.3209176716674371
868.521,0.33739103949037386
868.638,0.3555519166340815
868.756,0.3746919884487353
868.873,0.3952590610953785
868.99,0.4289137873751293
869.108,0.46081816504993034
869.225,0.4892877352496987
869.342,0.5195863556821751
869.46,0.558298729203137
869.577,0.5918314374553553
869.694,0.6151494065327123
869.812,0.6201756531027117
869.929,0.6278307780758933
870.046,0.6285211140375346
870.164,0.6259187935262183
870.281,0.6162912850797336
870.398,0.6082957677514926
870.516,0.6001519985198001
870.633,0.5849458258545416
870.75,0.5610098734094893
870.867,0.5358574012299409
870.985,0.5185744817360837
871.102,0.5031828416689763
871.219,0.48039934949396623
871.337,0.4557727750130819
871.454,0.4317465292276561
871.571,0.4098226540566109
871.688,0.38310713094437465
871.806,0.3545656080501187
871.923,0.33838390125474066
872.04,0.3215048614320159
872.157,0.30022829189702954
872.275,0.2764576738792842
872.392,0.2588837413897636
872.509,0.24529857822027176
872.626,0.23066283983372726
872.744,0.21976512372063278
872.861,0.20449550168105818
872.978,0.19203229427472487
873.095,0.17535519428756574
873.213,0.15671543432755058
873.33,0.1344724820145084
873.447,0.11775511607826344
873.564,0.10048115179936003
873.681,0.08789962051448472
873.799,0.07278506347858449
873.916,0.0749220728649097
874.033,0.07586599831220836
874.15,0.07457207923363268
874.267,0.06691337927154117
874.385,0.05875243183074581
874.502,0.04979045552015411
874.619,0.04924056112863591
874.736,0.04698527829814322
874.853,0.05165276704737061
874.97,0.05204841480934275
875.088,0.057549010223562465
875.205,0.052939305912435036
875.322,0.04971200416488688
875.439,0.052487215121696074
875.556,0.05839526158798229
875.673,0.05484046778792853
875.791,0.04953279646108476
875.908,0.04062890769294879
876.025,0.03839591112376304
876.142,0.03685278316718781
876.259,0.04060174232575234
876.376,0.04363211659145301
876.493,0.046312870690999444
876.61,0.0437682731209692
876.728,0.04338346224829644
876.845,0.041698254123507195
876.962,0.043021908947847534
877.079,0.04914934619312231
877.196,0.05256528434765194
877.313,0.05428269435473158
877.43,0.058950928789906085
877.547,0.05662637871354809
877.664,0.056318456944308086
877.781,0.05185580917769671
877.898,0.05235432407880178
878.016,0.04878332117001541
878.133,0.04811815224413578
878.25,0.05223604135092534
878.367,0.054015739656623124
878.484,0.04989729990614414
