wavelength_nm,intensity
792.446,259.91221331421707
792.565,221.60797088997464
792.684,187.56303582503958
792.803,157.77740811941186
792.922,132.25108777309134
793.041,98.0588799808836
793.16,84.83290595490956
793.279,84.90217002417364
793.398,95.84156396356761
793.518,126.11515703716069
793.637,164.7324730544767
793.756,202.0164557384593
793.875,231.70130422330777
793.994,232.27706179906528
794.113,221.87273279473627
794.232,194.89437781638128
794.351,169.42857695058046
794.47,156.6528193748229
794.589,146.52468084668442
794.708,145.12900985101345
794.827,153.35844708045067
794.946,155.08485400685754
795.066,157.15152067352423
795.185,160.3419968640004
795.304,165.58615270815628
795.423,151.30909643110004
795.542,136.0813908033944
795.661,122.2510877730914
795.78,118.54372846573202
795.899,110.95065487265842
796.018,106.56797088997442
796.137,109.05887998088355
796.256,105.99654231854589
796.375,101.67533019733386
796.494,100.96277608477979
796.613,94.56364188564555
796.732,90.10823063023426
796.851,81.47273279473644
796.97,83.13420465620828
797.089,86.20606612806975
797.208,94.4138583358619
797.327,113.23377175577528
797.446,124.95671547871899
797.565,138.31775443975786
797.684,140.28139080339426
797.803,141.45628257828614
797.922,140.60693192893555
798.041,133.41039513239883
798.16,124.16104448304816
798.279,117.49004881205252
798.398,113.42597954798322
798.517,118.81905314105677
798.636,123.39913972114336
798.755,129.4891830111867
798.874,134.81558993759364
798.993,136.0909146129183
799.112,142.12554664755032
799.231,142.6813908033945
799.35,138.76883669084032
799.469,134.99481071681436
799.588,130.29178041378404
799.707,119.73939946140308
799.826,110.89870682071046
799.945,106.23983236183592
800.064,124.42251634451992
800.183,134.2519535739571
800.302,145.4623431843467
800.421,166.44675876876232
800.54,172.691780413784
800.659,179.0216505436541
800.778,177.074464396468
800.897,176.37056829257182
801.016,180.7238150458186
801.135,173.57836050036406
801.254,178.46667218867563
801.373,192.08658560858908
801.492,199.39134751335098
801.611,208.38442110642455
801.729,206.73420465620814
801.848,199.27100119300462
801.967,176.55065487265836
802.086,148.85281937482281
802.205,121.25954022322395
802.324,90.9893365920385
802.443,61.15592630950367
802.562,39.006338484184134
802.681,25.231281397104727
802.8,19.209017021316278
802.919,9.63786086285428
803.038,7.563688960883473
803.157,-5.201655119478689
803.276,-20.553571574599943
803.394,-28.819431201533682
803.513,-32.47483548964322
803.632,-35.84969883647221
803.751,-34.360988301952545
803.87,-25.783893462758606
803.989,-25.95008441519574
804.108,-24.66661112663572
804.227,-21.675883822327037
804.346,-18.702312998091855
804.465,-14.048808775639753
804.583,-10.438167721806412
804.702,-7.757785146740045
804.821,-6.336719118831183
804.94,-14.875818346582045
805.059,-12.104498314615462
805.178,-5.865067338647188
805.297,-1.9392541598774307
805.416,10.770307083822562
805.535,21.154807594265936
805.653,18.775749148559708
805.772,25.227641177980733
805.891,31.385485786348177
806.01,53.328315787340266
806.129,90.95527401524659
806.248,133.49571068133517
806.367,173.16218223536464
806.485,201.5262586462105
806.604,217.83397265756088
806.723,236.4464485736731
806.842,227.14637037723094
806.961,224.71295884745507
807.08,219.96612740425917
807.198,218.11972886149601
807.317,209.78588443128714
807.436,196.65463740367576
807.555,190.82382327649736
807.674,190.37482733113723
807.793,193.35786601781157
807.912,211.09761466119585
808.03,240.91788278509972
808.149,280.349406320259
808.268,315.1237869982755
808.387,336.87219365031797
808.506,343.46562194738226
808.624,332.1629463483427
808.743,317.24208893112143
808.862,288.4130064056752
808.981,262.43760353390877
809.1,239.95570715564875
809.219,225.89199259557046
809.337,214.86204426925838
809.456,203.26845957930993
809.575,202.7553943698809
809.694,212.02328154140423
809.812,225.3561037778626
809.931,242.97117709657195
810.05,264.20270063173155
810.169,285.6930986257654
810.288,294.36618060248327
810.406,298.36826690820544
810.525,291.3582320018064
810.644,284.780231727442
810.763,294.12517517602134
810.882,304.9783437328258
811.0,322.0955815536995
811.119,338.14788430963813
811.238,361.54564161103133
811.357,382.0879876570135
811.475,379.4294679021299
811.594,386.07657585287393
811.713,396.43190891184315
811.832,400.9958999794701
811.95,404.72093000813584
812.069,399.47279986364134
812.188,409.6099511044282
812.307,407.17221057032367
812.425,403.44788994963903
812.544,412.2924004977856
812.663,418.7109370199581
812.782,430.7138891265462
812.9,448.78956850586155
813.019,470.97174139167043
813.138,496.0543471779124
813.257,511.1161737433755
813.375,524.7909873218256
813.494,527.2190476535225
813.613,531.8315235696349
813.731,525.7271163688641
813.85,520.5603715057555
813.969,522.5867002357204
814.088,527.509998662655
814.206,530.7943360506287
814.325,539.7583271182559
814.444,541.0625779261427
814.562,547.2490798162805
814.681,536.7896942605311
814.8,529.8887502632228
814.918,522.6380227161314
815.037,512.1266891084339
815.156,511.1885156738966
815.274,513.0607318497489
815.393,511.36238525503825
815.512,522.0649044611934
815.631,530.4159085158335
815.749,538.5487307522918
815.868,545.3993019064992
815.987,549.1736825845162
816.105,544.0000113144812
816.224,521.8826171007232
816.343,501.1539674757097
816.461,485.45648668186516
816.58,451.5009972300122
816.698,421.9264601591117
816.817,405.848892785181
816.936,400.7029271428522
817.055,379.5474376909996
817.173,366.20580105299985
817.292,352.14035489119055
817.41,344.0194974739699
817.529,327.70210326021237
817.648,315.30159216333783
817.766,314.4906914560737
817.885,316.5455916146104
818.004,310.99096796362323
818.122,317.5437036199953
818.241,321.32933970926786
818.359,337.83552790595195
818.478,348.22906620531677
818.597,329.14845539629977
818.715,349.03205477802595
818.834,363.0571649836977
818.953,497.33718098485065
819.071,649.2041002318865
819.19,840.5373361318366
819.308,996.5493842648499
819.427,1080.6164303652095
819.546,1023.4826360799884
819.664,899.6435309558433
819.783,706.7964395569309
819.901,587.3707316269965
820.02,445.4432851280184
820.138,372.79733960952746
820.257,321.87074774086454
820.376,293.74091918630893
820.494,251.90404445307166
820.613,228.54768920035394
820.731,224.57142052772295
820.85,236.45835531829545
820.969,250.6353333989113
821.087,284.7681556353714
821.206,325.1936185644723
821.324,340.29094296543474
821.443,340.5605617386915
821.561,325.4474965292644
821.68,299.25218023758623
821.798,260.4629245519688
821.917,229.2970454897279
822.035,220.49913179545257
822.154,227.34797134793064
822.273,222.00027410387196
822.391,226.32790153513812
822.51,229.82089693177227
822.628,215.80480141931562
822.747,212.02593534408842
822.865,217.8773722991642
822.984,225.07339799882874
823.102,235.30751893658856
823.221,238.24207277478124
823.339,248.42511146145895
823.458,255.78044452043108
823.576,243.4613187049444
823.695,253.15085089811572
823.813,250.64384629475012
823.932,239.14636550090833
824.05,224.90862496680685
824.169,213.65443421625514
824.287,220.5898538553139
824.406,220.2334986025977
824.524,233.38623425897228
824.643,256.3701387465156
824.761,260.2146492946648
824.88,264.9492031328573
824.998,259.97553186282465
825.117,248.8468822378137
825.235,243.82039711496736
825.354,231.5099293081384
825.472,237.19080349265136
825.591,242.037911443398
825.709,236.5283094374346
825.828,237.90961652238008
825.946,225.6242569406587
826.064,212.29560731564726
826.183,212.14531266899075
826.301,207.74220416952022
826.42,210.0975372284913
826.538,220.90914734373942
826.657,230.42032455855485
826.775,232.76873121059975
826.894,221.1327222782291
827.012,209.83870468784966
827.13,199.2295355823186
827.249,190.98140543782625
827.367,186.82851338857188
827.486,193.5396906033867
827.604,206.13831370564736
827.723,219.42698009795117
827.841,237.31737809198665
827.959,257.5151353933813
828.078,274.9535853354686
828.196,300.1418188273394
828.315,312.72399171314953
828.433,310.10010399289916
828.552,296.9636621600946
828.67,278.2904237904934
828.788,242.9557141123874
828.907,204.904695795292
829.025,169.727509694305
829.143,136.6054290961573
829.262,108.02676250527125
829.38,82.16802045513387
829.499,75.51915795877935
829.617,83.52077243794065
829.735,91.70090025984578
829.854,118.26165692882071
829.972,157.88646151945767
830.091,204.3353314389492
830.209,260.67113397712427
830.327,325.11900834753817
830.446,395.28982644089575
830.564,452.36194323555225
830.682,487.8106834068321
830.801,501.2836660023543
830.919,474.6579472991754
831.037,420.6478130115811
831.156,354.384864871173
831.274,287.44918945803767
831.392,228.10918504057338
831.511,192.7354143893428
831.629,171.91575629222461
831.747,170.8424185414268
831.866,168.04786866941683
831.984,165.93903308312105
832.102,170.32803299466065
832.221,166.72585643834122
832.339,149.7456614253467
832.457,137.45279078796918
832.576,129.02506371912216
832.694,121.08414925774662
832.812,115.64865021290055
832.93,118.34933240384117
833.049,123.73428575328357
833.167,121.18314486755688
833.285,112.5189119575744
833.404,105.83113836355528
833.522,111.89149678893591
833.64,116.29407628334735
833.759,126.23096996255856
833.877,144.89590104109718
833.995,164.21782659430912
834.113,188.2860280494259
834.232,209.76721651752968
834.35,227.5159374531661
834.468,239.82916055330475
834.586,251.42117153223143
834.705,254.34651584449145
834.823,249.1714272563185
834.941,242.0993689711757
835.059,224.48099033971255
835.178,209.13100997664765
835.296,191.09877853133162
835.414,181.77390639337483
835.532,190.58842819481197
835.651,215.24710584040474
835.769,238.11877049898453
835.887,260.88913645626565
836.005,281.7703249243694
836.124,305.2549765959363
836.242,312.4461217739964
836.36,323.4086955234851
836.478,341.4102303119347
836.596,361.34856163718064
836.715,381.0782349537686
836.833,392.0849645474127
836.951,415.45273310209586
837.069,431.12786096413834
837.188,438.1848070079991
837.306,445.7014933116003
837.424,462.747183944206
837.542,465.78161916555644
837.66,480.672331443184
837.779,489.4833900411576
837.897,499.40353954822206
838.015,502.28472801632535
838.133,504.4152671337789
838.251,507.21507032049624
838.369,508.20794710028724
838.487,497.6501745294287
838.606,498.54002100618936
838.724,497.18657743966
838.842,488.3976360376332
838.96,486.17406260097425
839.078,484.57126838509475
839.196,489.6559200566609
839.315,487.8115673992228
839.433,478.9914571660272
839.551,470.9003512618358
839.669,466.7079466563456
839.787,458.23588837120155
839.905,449.9369902592176
840.023,445.11514842429
840.142,450.3236096196654
840.26,446.5415946245647
840.378,441.6660731359574
840.496,433.4754001321983
840.614,431.24490028861226
840.732,429.38409741472304
840.85,422.36138977892904
840.968,423.5256951301482
841.087,427.057100048467
841.205,434.7088512871322
841.323,447.2835462487411
841.441,450.3257736778826
841.559,468.73423487325795
841.677,487.59897312491034
841.795,506.218689731541
841.913,529.8184929182584
842.031,554.4849627716422
842.149,568.07437634797
842.267,578.3962574567652
842.385,587.8575325049544
842.504,595.9240023583386
842.622,594.7644981857487
842.74,596.2716606798253
842.858,602.5277409228197
842.976,601.3327389147321
843.094,596.7403343092418
843.212,597.6111331669551
843.33,607.7884255311621
843.448,610.8583585880099
843.566,609.3992873158531
843.684,607.1679216714019
843.802,612.6404521308467
843.92,623.1484804257893
844.038,632.9950368592599
844.156,641.3593422104796
844.274,652.8310068690583
844.392,658.2498576748233
844.51,656.6496608615405
844.628,641.4087714075653
844.746,631.0215616072696
844.864,612.8568626294848
844.982,576.4982242577607
845.1,546.5317936782445
845.218,506.8848436182087
845.336,469.0872442075234
845.454,436.9502508574442
845.572,403.6937769878846
845.69,376.09358017460215
845.808,351.3262837942202
845.926,330.695783950635
846.044,317.59255683432264
846.162,295.11963274831345
846.28,274.43718485278043
846.398,259.0759490784596
846.516,246.59609858552398
846.634,214.9984991748393
846.752,194.7861811494359
846.87,172.79983715000634
846.988,159.768471505555
847.106,132.8302137254986
847.224,118.56927797523946
847.342,108.96842062421345
847.46,109.4931194724991
847.578,93.45182121228741
847.696,102.33675402609958
847.814,106.29012037520401
847.932,121.79500609052529
848.05,125.59399509125882
848.168,137.62363186671692
848.285,145.86923689252995
848.403,159.13084169023472
848.521,164.28706154871682
848.639,178.09609526001265
848.757,200.92244498862448
848.875,219.20074276918433
848.993,237.2279582986619
849.111,247.1001954731611
849.229,254.48671836194598
849.347,256.2922888697784
849.465,255.36452604427762
849.582,243.70949049150403
849.7,246.47090515518067
849.818,244.7933587798962
849.936,252.24221933101853
850.054,264.146491137552
850.172,275.9018451951679
850.29,289.7212685168529
850.408,299.9623368601831
850.525,294.3627125628208
850.643,301.7327852351554
850.761,311.40761981225205
850.879,314.92228122917544
850.997,324.33218074133686
851.115,323.1135088249267
851.233,330.35024816392774
851.35,338.47789659383795
851.468,358.9665839847872
851.586,401.34618046664576
851.704,443.23659945932695
851.822,491.6464989714887
851.94,557.9810738083256
852.057,621.7165144460282
852.175,682.3394009711768
852.293,742.6982182322563
852.411,808.7557367920372
852.529,867.719748858312
852.647,914.4690423098677
852.764,953.0321885752763
852.882,992.3130837584337
853.0,1009.2727668203787
853.118,1002.9311511810253
853.236,990.1774143295506
853.353,968.2894783438767
853.471,934.3028410595016
853.589,894.524861783784
853.707,849.7771855383696
853.824,813.6442279076737
853.942,777.5233914890989
854.06,747.6579663259356
854.178,710.6055281757592
854.296,667.3427004151932
854.413,617.5309549057092
854.531,555.607521084537
854.649,486.11958509886256
854.767,423.97623785777716
854.884,369.558431742233
855.002,319.1423572284204
855.12,266.8916506799759
855.238,218.25219954278685
855.355,182.88720728005651
855.473,139.05974067627554
855.591,98.76607207493856
855.708,67.82470795249809
855.826,44.48291940381475
855.944,15.085946084853587
856.062,-2.238401962177484
856.179,-14.61071308350214
856.297,-17.34516343322483
856.415,-25.531425456016407
856.532,-31.85252475182746
856.65,-36.24329810576871
856.768,-32.390949197767156
856.886,-37.99669095765087
857.003,-36.6562190187028
857.121,-25.53632547337535
857.239,-19.127865404310015
857.356,-13.086302167878259
857.474,-10.740177498898888
857.592,-3.420584197205521
857.709,18.40274181918469
857.827,33.947191546230954
857.945,61.10066335968659
858.062,100.94893911254076
858.18,134.21972046198584
858.298,166.536104372375
858.415,201.26947480097965
858.533,227.14310496984413
858.651,258.03491695689047
858.768,272.5137419309498
858.886,291.5137790262212
859.003,306.75537456305125
859.121,305.0523813552925
859.239,297.86107645922226
859.356,291.34596203934245
859.474,267.9451333337485
859.592,239.5443046281546
859.709,199.003216182301
859.827,167.82836150268085
859.944,144.68554145509543
860.062,124.64055690534542
860.18,115.92111348113662
860.297,114.31335836861616
860.415,115.47443442492703
860.532,113.13854078426843
860.65,116.50654324750602
860.768,124.37151540771319
860.885,132.92999406142707
861.003,135.86076708743536
861.12,140.04435396625763
861.238,129.123178940318
861.356,117.91196062433521
861.473,109.15355616116639
861.591,115.61939412223991
861.708,115.62549182357316
861.826,122.22812632144326
861.943,123.3606309491835
862.061,124.72949921328731
862.178,114.74771812674183
862.296,110.25944353370281
862.414,110.71489188438682
862.531,118.36427962901023
862.649,115.75825611822232
862.766,123.65959191479371
862.884,127.58863333907054
863.001,129.60512065079297
863.119,132.4657638066711
863.236,138.1012987374408
863.354,138.65804578942246
863.471,137.6269140535252
863.589,139.3533580752037
863.706,151.9040445211246
863.824,164.71793443024902
863.941,180.85563386318296
864.059,192.99939390217762
864.176,198.43666043467886
864.294,193.0289053221585
864.411,184.77786016634815
864.529,171.9917500754727
864.646,161.08702526598245
864.764,156.09572036991204
864.881,169.46718603661225
864.999,179.77977724443804
865.116,201.4205069804023
865.233,233.52011117524137
865.351,260.97988853025385
865.468,273.30806415366465
865.586,283.7089670498029
865.703,285.9064067424779
865.821,287.7185650498716
865.938,276.0553986819406
866.056,277.972318894096
866.173,276.2849101019225
866.29,272.1195792318269
866.408,263.13260334008623
866.525,262.84606034877834
866.643,263.87033986829294
866.76,269.1353120285004
866.878,268.9881629765866
866.995,268.43408751774655
867.112,262.90252288141744
867.23,262.20039547452546
867.347,257.94155811092355
867.465,256.61085927546014
867.582,265.4723682322046
867.699,272.5226217776934
867.817,278.93131688162384
867.934,276.09239293793513
868.051,286.5166724574499
868.169,297.5980948341073
868.286,307.26220119344873
868.404,316.4786885051709
868.521,329.2259117476289
868.638,353.11772373467556
868.756,387.5186266308132
868.873,412.4459364533577
868.99,454.37930688196275
869.108,499.10055609844653
869.225,539.4529741460989
869.342,572.5092882976473
869.46,610.2530483366415
869.577,655.2955096743372
869.694,686.1734688475306
869.812,701.9717743410703
869.929,713.0540625185927
870.046,720.8489048086689
870.164,709.5372535922518
870.281,684.6325287827608
870.398,669.1226091680751
870.516,652.4698324105321
870.633,626.2196530555866
870.75,594.8828936140608
870.867,564.4188614452623
870.985,541.5582924799269
871.102,509.0414464583144
871.219,477.33499004709165
871.337,459.5151137224491
871.454,441.4796529822222
871.571,420.854581852385
871.688,397.3134934065308
871.806,371.4520586403304
871.923,352.6408403243466
872.04,315.5482367269775
872.157,284.488533562509
872.275,263.04614641535653
872.392,235.76479822924296
872.509,219.22977038944964
872.626,199.70166895658258
872.744,185.9718359219839
872.861,165.6160288614111
872.978,139.3589230995395
873.095,117.12779136364205
873.213,93.66722239830725
873.33,68.31747594379493
873.447,55.34435286590586
873.564,42.179986155187464
873.681,34.57553274491988
873.799,22.355290940757286
873.916,19.856428682841845
874.033,9.480919664492204
874.15,-0.061669560342534346
874.267,-12.586035901325925
874.385,-15.770418876631751
874.502,-17.123398071594266
874.619,-22.91380780740199
874.736,-15.743019771216641
874.853,-13.364192121497954
874.97,-17.15768145285876
875.088,-12.329794187624973
875.205,-18.310448523395806
875.322,-11.460433127246649
875.439,-11.211090737950096
875.556,-9.901543246782852
875.673,-3.783339149740339
875.791,-9.660964994406367
875.908,-17.21891344877156
876.025,-23.967640901140022
876.142,-35.395040700858175
876.259,-27.92181005221844
876.376,-25.74923968815959
876.493,-24.7029145251228
876.61,-16.96105230366025
876.728,-19.37066626775466
876.845,-10.045750884120157
876.962,-12.65264380882854
877.079,-9.288805146873043
877.196,0.7856430082835484
877.313,2.780761871553091
877.43,-0.9121725914958958
877.547,-4.47500517592732
877.664,-14.886398477723125
877.781,-12.107987783317375
877.898,-17.237558935894015
878.016,-23.13646518084829
878.133,-23.735064109036415
878.25,-21.55770243263207
878.367,-20.362442144059727
878.484,-27.257215955468652
878.601,-27.932658624003246
878.718,-24.98423167359499
878.835,-22.181395053870773
878.952,-33.42891829102252
879.069,-32.36179039632639
879.186,-34.67066999829973
879.303,-34.25124561277631
879.42,-36.948957767803705
879.537,-24.47205936735186
879.654,-23.047612497584097
879.771,-22.568483721535067
879.888,-35.73203803371927
880.005,-39.43952734452567
880.122,-42.63099842221103
880.239,-45.3064512667754
880.356,-47.46588587821875
