wavelength_nm,intensity
792.446,0.26802880142676516
792.565,0.2331634281625205
792.684,0.20476227542729233
792.803,0.1828253432210807
792.922,0.1673526315438854
793.041,0.15973267342198552
793.16,0.15405176173681484
793.279,0.1560336539588315
793.398,0.16386674239728968
793.518,0.1765040518373436
793.637,0.1934094606579599
793.756,0.2110751075149595
793.875,0.22668415667815914
793.994,0.23903802476938799
794.113,0.23152243458600907
794.232,0.21273510704238024
794.351,0.19648117388010983
794.47,0.18511056163073508
794.589,0.18018549354243105
794.708,0.19017515317369332
794.827,0.1999615699773098
794.946,0.21044340683443868
795.066,0.21173537205233872
795.185,0.20954364534340122
795.304,0.20337934531139717
795.423,0.1964152572873598
795.542,0.18517098517408923
795.661,0.17779052400584774
795.78,0.16544214896401466
795.899,0.16078514168622726
796.018,0.15713336244787737
796.137,0.15091632914167327
796.256,0.1421867750418151
796.375,0.14354685407222328
796.494,0.13747044283055262
796.613,0.13189939213329863
796.732,0.12623166376667788
796.851,0.13494364010846943
796.97,0.13623121088685278
797.089,0.13741551233659438
797.208,0.13952154747495682
797.327,0.16228034973177294
797.446,0.16970805112481863
797.565,0.18607294388488488
797.684,0.18509627970230574
797.803,0.18344506905391833
797.922,0.17707203314487274
798.041,0.16165084627101056
798.16,0.1580748711143231
798.279,0.1550119467712065
798.398,0.14509809122160666
798.517,0.15618965656167302
798.636,0.15777824644694802
798.755,0.16210017771158966
798.874,0.1722436427259353
798.993,0.17196020137711027
799.112,0.18358459250857256
799.231,0.18235195222414763
799.35,0.17758068951892692
799.469,0.18136320333289768
799.588,0.18201028455172685
799.707,0.17625247017501433
799.826,0.17734009395538924
799.945,0.16436660989231033
800.064,0.16807331962461858
800.183,0.17020462279020188
800.302,0.1670065694319479
800.421,0.18719572318139324
800.54,0.19644711697385558
800.659,0.20852193815577613
800.778,0.21992550870152588
800.897,0.22332350905778842
801.016,0.227717948574455
801.135,0.22232157684798842
801.254,0.21430721777946776
801.373,0.22415295951655914
801.492,0.21695706480801769
801.611,0.22030562771971762
801.729,0.21335142718459282
801.848,0.21364036158281374
801.967,0.19611204096070997
802.086,0.18411741829996842
802.205,0.16131012670389655
802.324,0.14269420315579784
802.443,0.11251910462246617
802.562,0.09838207110100954
802.681,0.07779172737879958
802.8,0.06894990531070996
802.919,0.05242936319874321
803.038,0.05435830918756826
803.157,0.052417787380829625
803.276,0.05194843007904073
803.394,0.04894093526324969
803.513,0.057145735616059665
803.632,0.05682104472769756
803.751,0.051436955790225156
803.87,0.04599244959024253
803.989,0.04395721356118767
804.108,0.03729858557661343
804.227,0.03038833317689433
804.346,0.032409740851854
804.465,0.03986351193254781
804.583,0.047937134230215575
804.702,0.05104194591184141
804.821,0.059884617449352556
804.94,0.05951043797023024
805.059,0.0536982048220367
805.178,0.05181788955999681
805.297,0.04535558617696876
805.416,0.05151256777836494
805.535,0.059126764194763114
805.653,0.05911816052562373
805.772,0.0673727160225241
805.891,0.07641141569838653
806.01,0.08346602254711466
806.129,0.10757507763135449
806.248,0.132718979697417
806.367,0.17825261912098872
806.485,0.20474542822066033
806.604,0.2192746404486231
806.723,0.23239213898185662
806.842,0.2268233820803447
806.961,0.21194500506277436
807.08,0.20382417741195796
807.198,0.2012831893374291
807.317,0.19651861486746702
807.436,0.1887416521088302
807.555,0.18340470189182237
807.674,0.18493516202948507
807.793,0.18233704624123925
807.912,0.19569074589849286
808.03,0.21613267649612955
808.149,0.2469399913037036
808.268,0.27225974976484035
808.387,0.2975234791221398
808.506,0.30383618806381457
808.624,0.29708752415207734
808.743,0.27773231187690295
808.862,0.2615301099549371
808.981,0.24079394506165053
809.1,0.22516411888673055
809.219,0.2182188038066229
809.337,0.2123512250179777
809.456,0.20872481038283247
809.575,0.20649582751398715
809.694,0.20534458093660457
809.812,0.20958091720665545
809.931,0.21908179201767292
810.05,0.23282110374251536
810.169,0.2536266742101578
810.288,0.2592099061920672
810.406,0.27228785476965156
810.525,0.27134314684955313
810.644,0.26030770718930923
810.763,0.2562671166297196
810.882,0.2593202500599092
811.0,0.27117434723210265
811.119,0.2813420782397751
811.238,0.2897003987764599
811.357,0.3021927882884487
811.475,0.3070740085575709
811.594,0.30683570678977623
811.713,0.30796407571166484
811.832,0.3091660514954577
811.95,0.32153869253061695
812.069,0.3200512713302098
812.188,0.32640682605717325
812.307,0.32952367886035355
812.425,0.3392431770373255
812.544,0.34975147710753896
812.663,0.35967641533191463
812.782,0.3707010620453363
812.9,0.3908243957780161
813.019,0.3988014986866296
813.138,0.40989975226195585
813.257,0.41577521447172405
813.375,0.42447959712034633
813.494,0.43068244507410636
813.613,0.4277437602233204
813.731,0.4230593842745386
813.85,0.42150165204186496
813.969,0.42169730117634097
814.088,0.42487128169323773
814.206,0.4173755630636678
814.325,0.4195267377830598
814.444,0.4139019517777104
814.562,0.40728402244159423
814.681,0.40096711221236975
814.8,0.40493868350154083
814.918,0.40713929566549506
815.037,0.4032931590545159
815.156,0.39333215985609504
815.274,0.39548333457548634
815.393,0.3906407588041028
815.512,0.3884436356217526
815.631,0.39573630457564385
815.749,0.41183103588141823
815.868,0.41842279173240093
815.987,0.4189282488528001
816.105,0.4220440030460992
816.224,0.4182505997093192
816.343,0.40836870042219797
816.461,0.3811265678244855
816.58,0.3597356314432146
816.698,0.34112088222659787
816.817,0.3266588783532313
816.936,0.3175888517668145
817.055,0.31173555490659766
817.173,0.3076883726877311
817.292,0.30948579502603113
817.41,0.29745281759550257
817.529,0.2922674755418194
817.648,0.29059878371134873
817.766,0.29572059954400715
817.885,0.2935992804433199
818.004,0.29455297039442013
818.122,0.3037385441701163
818.241,0.31704390499268753
818.359,0.32143734247545896
818.478,0.34424194666132213
818.597,0.3488925773879275
818.715,0.3792682406347053
818.834,0.39914085125795495
818.953,0.5099424151080973
819.071,0.6240862113911041
819.19,0.7300694700674586
819.308,0.7927976302219436
819.427,0.8127123330259842
819.546,0.7411291111274092
819.664,0.6472586596630958
819.783,0.516138239400177
819.901,0.4586691851640982
820.02,0.39391275920633584
820.138,0.34579936657585014
820.257,0.3047015661820885
820.376,0.2659053534851811
820.494,0.23311084655816103
820.613,0.2113727494550742
820.731,0.20102723679894563
820.85,0.21101919022594984
820.969,0.23228947267247876
821.087,0.250996698270912
821.206,0.27194289080308665
821.324,0.28365746452062424
821.443,0.29161698967117045
821.561,0.28160545441830886
821.68,0.2657657937564682
821.798,0.239869458260736
821.917,0.21138809371932463
822.035,0.19590987570772966
822.154,0.1842548200756348
822.273,0.1833716343087689
822.391,0.18573703795459887
822.51,0.19259905183585785
822.628,0.18941647559189617
822.747,0.1945745455505678
822.865,0.20350963627381416
822.984,0.22173347352541434
823.102,0.22009334555180235
823.221,0.22390122396897752
823.339,0.22360909031710272
823.458,0.21926088899134444
823.576,0.2003550081567489
823.695,0.20187558080549878
823.813,0.2041640817597859
823.932,0.2059318416313479
824.05,0.20169350129350572
824.169,0.20877853298023408
824.287,0.21391133491168351
824.406,0.21708311820882056
824.524,0.2240516972483576
824.643,0.23160473674361137
824.761,0.23281000835704002
824.88,0.2292824686110187
824.998,0.23321119411490127
825.117,0.23509760385341288
825.235,0.227618364372029
825.354,0.22470824337809933
825.472,0.2349539756871903
825.591,0.2291490176616568
825.709,0.22834493180608995
825.828,0.21523861252361526
825.946,0.21317771696628202
826.064,0.20168745281606132
826.183,0.19355563906645296
826.301,0.19684497362066086
826.42,0.19969156839356456
826.538,0.20255464231465578
826.657,0.2230723769939549
826.775,0.22740978537288775
826.894,0.22723740019784172
827.012,0.22090510943030822
827.13,0.21497600848842902
827.249,0.21490139959262894
827.367,0.20419444428625422
827.486,0.2079375047205585
827.604,0.2192477900025624
827.723,0.23850432054057846
827.841,0.2477272470521656
827.959,0.2578059906596234
828.078,0.27429512291201863
828.196,0.29681342618128037
828.315,0.3051212106635217
828.433,0.31029026672098425
828.552,0.3035514902981594
828.67,0.29454518308473454
828.788,0.2591359846452976
828.907,0.22754445553596453
829.025,0.1953738314001942
829.143,0.16975675223009318
829.262,0.14971977349493124
829.38,0.13895088465598535
829.499,0.14197585845367555
829.617,0.13260555069001723
829.735,0.13206961587097346
829.854,0.14183507339892953
829.972,0.15428479559819208
830.091,0.18790716795783335
830.209,0.2302832543703996
830.327,0.2749386418366754
830.446,0.32172953293008805
830.564,0.35446894533096457
830.682,0.383635678404791
830.801,0.3923946343632181
830.919,0.3744496799887415
831.037,0.347347812271411
831.156,0.3043842151186723
831.274,0.2623379572150377
831.392,0.21566874893986976
831.511,0.1959132854845261
831.629,0.1899113191064696
831.747,0.1802009460707461
831.866,0.16741413184375648
831.984,0.1634395938935397
832.102,0.1659427427622608
832.221,0.16259023002633985
832.339,0.14807434358228538
832.457,0.1463811337005273
832.576,0.145948301819329
832.694,0.13330833732702074
832.812,0.12982720673686823
832.93,0.13346995687148178
833.049,0.1380596964512033
833.167,0.1324802945821763
833.285,0.12086809193255646
833.404,0.1253097264309872
833.522,0.13537659294102852
833.64,0.14415234294609813
833.759,0.15477586923321138
833.877,0.1648974664286592
833.995,0.17548584293617756
834.113,0.1829968816126245
834.232,0.1919878722643245
834.35,0.21146399560279072
834.468,0.21757223393155728
834.586,0.2284868904816779
834.705,0.2364946252915236
834.823,0.22730581966277397
834.941,0.21306340858985812
835.059,0.20744069062888398
835.178,0.2074439538591224
835.296,0.20829644252595667
835.414,0.21148677301565758
835.532,0.22418667061942477
835.651,0.24324642081368766
835.769,0.2447426948697132
835.887,0.2517408072006053
836.005,0.27828538650163037
836.124,0.3018098872448264
836.242,0.32062245021627644
836.36,0.334632989405889
836.478,0.3402479518989098
836.596,0.34850507115132645
836.715,0.3584024149533387
836.833,0.3710880306286762
836.951,0.3885075562733429
837.069,0.39995833444449724
837.188,0.407013574489106
837.306,0.40937775034967333
837.424,0.4255547482210027
837.542,0.4329252893009325
837.66,0.45192681317159944
837.779,0.4626074658174583
837.897,0.4637752555196132
838.015,0.4565903143104638
838.133,0.44477363385074786
838.251,0.4381006448452903
838.369,0.4432651772878534
838.487,0.4444560377974711
838.606,0.44944589126924694
838.724,0.44795174923418146
838.842,0.4451590503219408
838.96,0.42955765882849617
839.078,0.41655338108940143
839.196,0.41300703580005227
839.315,0.4136738593973074
839.433,0.4176211320937542
839.551,0.4205697684100387
839.669,0.4139692876566069
839.787,0.4155556477227248
839.905,0.40091553987355155
840.023,0.39879189437772367
840.142,0.39945761936509994
840.26,0.3959376407128512
840.378,0.3961869925560232
840.496,0.38915475812007877
840.614,0.3798868525800299
840.732,0.3818445427853057
840.85,0.3809853972603982
840.968,0.3820191565572947
841.087,0.3777949689724994
841.205,0.38135553099147906
841.323,0.3888754830149753
841.441,0.3910748673936676
841.559,0.405768741928122
841.677,0.4178578124390724
841.795,0.43637814518266416
841.913,0.4436794738402061
842.031,0.4483694068149691
842.149,0.4597531697834945
842.267,0.4653000184640077
842.385,0.4736439278968792
842.504,0.47608061200947166
842.622,0.4841388828737596
842.74,0.4986668673164599
842.858,0.5071382154953146
842.976,0.509712225842803
843.094,0.5091288313975664
843.212,0.5066525321305257
843.33,0.5034236850962562
843.448,0.49321756671939954
843.566,0.5029797815062755
843.684,0.511695021078306
843.802,0.524329002089324
843.92,0.5351942211948839
844.038,0.5526576912347184
844.156,0.563794266980432
844.274,0.5725501551179917
844.392,0.5690960930584931
844.51,0.5604214368531946
844.628,0.5483773441484918
844.746,0.535785045114085
844.864,0.519665109757674
844.982,0.5003427266034923
845.1,0.4729290816892482
845.218,0.4518247533110582
845.336,0.4305204779348598
845.454,0.3994913079082783
845.572,0.37666655645931346
845.69,0.35722003038878614
845.808,0.32951745107632163
845.926,0.3155980313078818
846.044,0.29635145223536286
846.162,0.29618772676396865
846.28,0.2940322215816453
846.398,0.28448197330265135
846.516,0.27314318814037397
846.634,0.2523288927702843
846.752,0.2156122193992574
846.87,0.1893290440506759
846.988,0.17192263652576095
847.106,0.16189044648917872
847.224,0.16152872102936328
847.342,0.169457558080224
847.46,0.17694056332593772
847.578,0.16984819517533212
847.696,0.16669885560664166
847.814,0.15656052949857965
847.932,0.15797582410932007
848.05,0.15107666742303205
848.168,0.16087871692897915
848.285,0.18186453215424453
848.403,0.20030807803890993
848.521,0.21895170004189665
848.639,0.23895430246541244
848.757,0.24641297728860345
848.875,0.26087529009148186
848.993,0.26550724169557716
849.111,0.2614404002764305
849.229,0.2700361363245585
849.347,0.267428248824945
849.465,0.26993988336224806
849.582,0.25859255427386396
849.7,0.25762598993372565
849.818,0.2700031411859456
849.936,0.26900911159882834
850.054,0.2764524058837109
850.172,0.2918265648862973
850.29,0.2949600126152092
850.408,0.29258283319022116
850.525,0.2887357137469084
850.643,0.28933466848458306
850.761,0.30299829190530747
850.879,0.3115907321237986
850.997,0.3229582608970645
851.115,0.3333304491198053
851.233,0.33307358676160875
851.35,0.32374330541137486
851.468,0.3243147949020698
851.586,0.32646059234961067
851.704,0.3551949460927427
851.822,0.3915119052218833
851.94,0.44061888056428195
852.057,0.5011448069907388
852.175,0.554038690586625
852.293,0.6046452684140861
852.411,0.6437032591917471
852.529,0.6807991327252167
852.647,0.7081613227292698
852.764,0.7342776891303482
852.882,0.769409248199868
853.0,0.7891602689610553
853.118,0.7822601126635388
853.236,0.7752995328226681
853.353,0.7593193658738391
853.471,0.7373484792539144
853.589,0.7091924190142816
853.707,0.6916632121358277
853.824,0.6782526936943696
853.942,0.6603060150618324
854.06,0.623253412020708
854.178,0.5916938583754168
854.296,0.5570373234807549
854.413,0.512597667612114
854.531,0.46689790621206884
854.649,0.42195838284840725
854.767,0.37506662972946664
854.884,0.3375053703142884
855.002,0.2967834102767478
855.12,0.2544937339416364
855.238,0.22144007086067874
855.355,0.19230844504834593
855.473,0.16743722834742134
855.591,0.14846345812123718
855.708,0.12748123193120894
855.826,0.10827735225847224
855.944,0.08139139515674884
856.062,0.05102062999411727
856.179,0.03227088331958748
856.297,0.014709499846063689
856.415,0.017407547342665843
856.532,0.018550481011673566
856.65,0.020710260698469325
856.768,0.02909400551821428
856.886,0.029352742229820705
857.003,0.032996951943247116
857.121,0.03548614045027518
857.239,0.03630173921509485
857.356,0.048149852285813144
857.474,0.040586904180335365
857.592,0.04349703920111411
857.709,0.06450432337451029
857.827,0.08772659604136207
857.945,0.11621679012540884
858.062,0.14230784961202067
858.18,0.17707889118161063
858.298,0.2001123975212672
858.415,0.20964443210373493
858.533,0.21876668520127346
858.651,0.24149961609180748
858.768,0.24864547001672518
858.886,0.2660809040699177
859.003,0.28055228866911897
859.121,0.28958115992692884
859.239,0.2847477717294143
859.356,0.2771480838561581
859.474,0.262632646793548
859.592,0.25171405847532935
859.709,0.2237285656842567
859.827,0.2096020365188711
859.944,0.19652358117821028
860.062,0.18195980528091615
860.18,0.16968772959156353
860.297,0.1631767641085608
860.415,0.16761454468133308
860.532,0.167533742821093
860.65,0.1669860317622071
860.768,0.16698103398362973
860.885,0.1712155717287564
861.003,0.17619057253244141
861.12,0.18802749064140112
861.238,0.20129040437351914
861.356,0.2128164158866746
861.473,0.2148328602857637
861.591,0.21335792248886115
861.708,0.21013839220384203
861.826,0.21012021110671467
861.943,0.19946309193973746
862.061,0.2000524421057891
862.178,0.19500702220159488
862.296,0.1886191010250592
862.414,0.17632175730848643
862.531,0.1746150128270803
862.649,0.1759635024196368
862.766,0.18254137503702683
862.884,0.18144435903855843
863.001,0.1855470635981855
863.119,0.18818971562840003
863.236,0.18979088549316436
863.354,0.1840544399749745
863.471,0.19099375524260948
863.589,0.19992704744093198
863.706,0.21441271396856304
863.824,0.22939495216157757
863.941,0.23759986601001312
864.059,0.24053255104832824
864.176,0.2335458874876474
864.294,0.21948637352489178
864.411,0.21476724075481093
864.529,0.20822002114579696
864.646,0.20850725359507877
864.764,0.21680774650300222
864.881,0.22662322243429653
864.999,0.23288799123612436
865.116,0.24898202262685598
865.233,0.26265142201426694
865.351,0.27247458821471543
865.468,0.28638458316566395
865.586,0.29930802644512106
865.703,0.3065351775010991
865.821,0.29888165774376485
865.938,0.2825864726769058
866.056,0.2810434210674962
866.173,0.2656512933213121
866.29,0.26354795067352765
866.408,0.27933766712773067
866.525,0.2902133015924213
866.643,0.2965297050585705
866.76,0.2900121479162949
866.878,0.2806480925770986
866.995,0.28145496749922716
867.112,0.2737717852751559
867.23,0.27755809018958444
867.347,0.2815333560032298
867.465,0.2819930702035418
867.582,0.28101470407202495
867.699,0.26979619525679577
867.817,0.26386199996035825
867.934,0.2646293249268372
868.051,0.266953380092095
868.169,0.2741179103849608
868.286,0.2846573702266266
868.404,0.29729187910786314
868.521,0.30674591238891236
868.638,0.3167382645107533
868.756,0.34138277659104
868.873,0.36487155107844327
868.99,0.39275806091215054
869.108,0.4156898401908159
869.225,0.44870026650095596
869.342,0.47244611570008355
869.46,0.505257693622094
869.577,0.5369651686155419
869.694,0.5630356763189855
869.812,0.5709296835716171
869.929,0.5705467639946069
870.046,0.5684148574899633
870.164,0.5623642095463326
870.281,0.5522959452745893
870.398,0.5555604104964126
870.516,0.5439815576408153
870.633,0.5281060415477974
870.75,0.5007335730693002
870.867,0.4741575967531989
870.985,0.4621667651929141
871.102,0.4406850428865088
871.219,0.42550604545688253
871.337,0.40353104731473144
871.454,0.38796973364715526
871.571,0.3808490396812162
871.688,0.35364026407471505
871.806,0.33301655608393865
871.923,0.31761344223896226
872.04,0.30394283617343165
872.157,0.28548888269400946
872.275,0.26787097133263293
872.392,0.24758124074512317
872.509,0.23700102426968828
872.626,0.21179611308278712
872.744,0.20244194523250245
872.861,0.1886801545470015
872.978,0.1720378087583257
873.095,0.15504610502807498
873.213,0.14468231469883627
873.33,0.13325946444608083
873.447,0.12628690863397063
873.564,0.11578646641646896
873.681,0.11244802853386693
873.799,0.10336383804148352
873.916,0.09529614179076526
874.033,0.0847615207244733
874.15,0.07819847731142612
874.267,0.07699070028178773
874.385,0.07545215714311039
874.502,0.06579910530877359
874.619,0.05386310824838508
874.736,0.0473501211159657
874.853,0.05075851840098447
874.97,0.041130585300352206
875.088,0.04170151726758746
875.205,0.04951557244114097
875.322,0.06339480682634546
875.439,0.0617977808864791
875.556,0.05543722573425806
875.673,0.0532711287564188
875.791,0.04451178395647497
875.908,0.0369976538732783
876.025,0.034161837803746556
876.142,0.03490176621736682
876.259,0.0415054937668014
876.376,0.040584060828726044
876.493,0.04449612054601022
876.61,0.04880597536725145
876.728,0.054624350292548335
876.845,0.065947728688474
876.962,0.06335977336361326
877.079,0.06131278134175924
877.196,0.06442657671427962
877.313,0.061525981220329574
877.43,0.05850975522904178
877.547,0.06027229322989891
877.664,0.06297659722528359
877.781,0.06486464337309761
877.898,0.0544400543788964
878.016,0.04070860792892027
878.133,0.04900681236424935
878.25,0.051776209461949954
