wavelength_nm,intensity
792.446,244.36029502409397
792.565,182.76591902719142
792.684,133.00258928954304
792.803,95.07030581114887
792.922,68.9690685920088
793.041,49.25150804242275
793.16,45.91346193755321
793.279,58.957051021564936
793.398,78.79003226796979
793.518,104.82839628222374
793.637,138.10780977392255
793.756,172.10583798423602
793.875,189.12464541532867
793.994,203.46726237023094
794.113,192.18130789656183
794.232,171.29189021942943
794.351,152.54965868948327
794.47,136.02647477858454
794.589,126.21584498023995
794.708,117.66495544163547
794.827,114.19718278614772
794.946,127.17962658087646
795.066,134.96726518079993
795.185,145.77135399717343
795.304,168.98929562739966
795.423,164.79511604550453
795.542,158.8771269397999
795.661,135.35307722803446
795.78,111.08790197514337
795.899,97.51190421142974
796.018,88.40776791957737
796.137,81.71228963638293
796.256,87.74754728392449
796.375,74.18016641647264
796.494,73.69592984040216
796.613,70.28932063633277
796.732,60.393448940536906
796.851,59.768733111526636
796.97,59.82379515560105
797.089,60.44836115974696
797.208,81.56910544748281
797.327,90.01891464812266
797.446,105.24821047550063
797.565,129.80358686130592
797.684,140.23347877310698
797.803,146.34995077148807
797.922,138.15819766164392
798.041,130.59328437863954
798.16,126.74525421251829
798.279,118.40458335375634
798.398,113.09334972443158
798.517,117.71631522930596
798.636,118.96785216275174
798.755,127.91895619576448
798.874,127.25534161405861
798.993,125.66705170767733
799.112,122.26664058917481
799.231,115.89133769578052
799.35,107.65629454264584
799.469,101.33986610812576
799.588,97.78361083377882
799.707,103.19358932566573
799.826,105.12218253616737
799.945,106.54774544363877
800.064,112.64170661950845
800.183,126.5893474490579
800.302,141.76729130891047
800.421,152.8932871168151
800.54,161.62967253510936
800.659,170.20848219582803
800.778,183.54400181325667
800.897,187.78861233977636
801.016,187.18127481434806
801.135,203.3782662932487
801.254,203.68954348643518
801.373,209.87268215148308
801.492,208.38049614120632
801.611,221.87792052054004
801.729,232.82556135009028
801.848,228.74289914933763
801.967,206.2533105416586
802.086,180.12649249675025
802.205,149.29144934361676
802.324,121.01587833221657
802.443,78.62461014946979
802.562,55.362838619235305
802.681,36.644730591796744
802.8,13.108711209346769
802.919,-6.811817830838218
803.038,-9.664289898959009
803.157,-4.1662281096334945
803.276,-7.774948891549885
803.394,-17.089553849830576
803.513,-20.0800395865287
803.632,-26.477446833975876
803.751,-35.57104461964266
803.87,-30.972988122898094
803.989,-24.177655868721583
804.108,-20.310988095060033
804.227,-15.586603013758086
804.346,-13.389625338580661
804.465,-10.111083575847136
804.583,-4.607680954030286
804.702,3.1364392492144813
804.821,12.683769008932195
804.94,5.502378593243902
805.059,3.484042370489143
805.178,8.125066828951352
805.297,9.718279141416607
805.416,18.19665246271412
805.535,35.25522127974449
805.653,43.047520582250655
805.772,53.65336922823232
805.891,58.251636719664916
806.01,77.1723417685132
806.129,116.51826664509196
806.248,154.50991156362426
806.367,193.34917552977532
806.485,221.18930529679204
806.604,246.8761883105619
806.723,261.670430631691
806.842,261.33307122121846
806.961,261.1792615942956
807.08,255.5925515344724
807.198,245.7157981846059
807.317,228.2156682113627
807.436,211.2557979783793
807.555,209.9703866198548
807.674,206.89103586739094
807.793,211.37965048289257
807.912,238.1583083884373
808.03,268.68501824203395
808.149,307.20913069303293
808.268,343.07610028688885
808.387,368.8106023482771
808.506,383.5944550590158
808.624,374.16532075676736
808.743,354.8556669739995
808.862,339.53042877564724
808.981,319.45540702751157
809.1,305.75094804993864
809.219,300.0109912368681
809.337,292.447657800421
809.456,292.4990429786925
809.575,289.00757101410676
809.694,286.9256228590448
809.812,292.9389127992208
809.931,307.8465750337689
810.05,334.9732848873648
810.169,366.01341465438065
810.288,378.78947515732716
810.406,381.28328457802263
810.525,376.12514594677
810.644,362.5306436791536
810.763,355.38549206088794
810.882,367.41003741231935
811.0,385.08826241743054
811.119,406.87298092903524
811.238,422.12350030644075
811.357,432.55150886133526
811.475,441.1457511824634
811.594,440.9971363607343
811.713,444.15847824896196
811.832,450.4211188384882
811.95,449.72185466610983
812.069,435.6875255586665
812.188,432.43328303130966
812.307,426.7695166944293
812.425,414.6641919159904
812.544,401.6575684362531
812.663,397.79899690456784
812.782,390.91185394431113
812.9,390.5372650966084
813.019,389.33843382466296
813.138,406.05821727133184
813.257,426.32518686518705
813.375,442.59821706510286
813.494,465.65393124770276
813.613,490.01094413160183
813.731,502.53419078173454
813.85,518.2660954405253
813.969,536.9867446880605
814.088,544.9887792169809
814.206,555.0999046549921
814.325,567.5279132098866
814.444,576.5844931933523
814.562,578.454925990671
814.681,590.349601212232
814.8,605.5689517584683
814.918,607.3380858544881
815.037,602.8128476561355
815.156,604.6477826179563
815.274,600.6498171468763
815.393,593.623280247225
815.512,590.3569165077467
815.631,601.7754012531173
815.749,605.8640158686173
815.868,604.9812019126891
815.987,615.828258086631
816.105,611.2562666415254
816.224,592.682543594688
816.343,570.7789504179807
816.461,541.1723269382426
816.58,515.3977380905392
816.698,489.3867856064719
816.817,477.7048374514089
816.936,467.8601187335752
817.055,448.19635239669367
817.173,430.6260925533188
817.292,413.725096779208
817.41,399.2526724336687
817.529,384.8642307721122
817.648,379.1052263399928
817.766,377.3825855442367
817.885,374.4867845753205
818.004,368.27669789211814
818.122,373.64929519159966
818.241,383.80111327030204
818.359,393.4430946564703
818.478,393.46747570485206
818.597,372.2869085579598
818.715,382.94932180710225
818.834,393.2919955292699
818.953,531.7406285158363
819.071,697.3506654418375
819.19,904.5761904300293
819.308,1072.8243649490753
819.427,1164.0332414153245
819.546,1116.047912486599
819.664,990.7414466326182
819.783,790.1839295828786
819.901,658.1630692816564
820.02,503.2210280733458
820.138,415.3874896385038
820.257,360.5545874724528
820.376,334.47236682548095
820.494,300.3272152072141
820.613,292.10847051535416
820.731,291.0879942217624
820.85,296.0536651143179
820.969,314.2669550544923
821.087,352.2161757305975
821.206,397.91777735908374
821.324,423.22284219103346
821.443,423.18937888445515
821.561,420.55245237441375
821.68,387.86530941415594
821.798,342.1582530339847
821.917,298.4304174330341
822.035,274.91470304420466
822.154,253.4292916856782
822.273,234.80015738342883
822.391,248.46279797295423
822.51,290.47868531572664
822.628,314.63050339442975
822.747,334.12258121339266
822.865,343.70297072066717
822.984,337.0920182365996
823.102,307.768511639978
823.221,275.8121046104559
823.339,277.93881446405055
823.458,293.6490741011951
823.576,298.88141166041737
823.695,311.3457838516744
823.813,320.9737924065678
823.932,314.68664944630973
824.05,299.28608657263186
824.169,288.51755833098866
824.287,286.4944846348
824.406,285.25582652302705
824.524,287.70288269696846
824.643,289.1464756674469
824.761,290.7987266465833
824.88,288.3384235131657
824.998,292.7993325009602
825.117,302.2411938697069
825.235,303.6077305631288
825.354,298.2063018885852
825.472,297.36244897161714
825.591,298.7411068771598
825.709,289.82366088659836
825.828,289.6585958484179
825.946,291.2052191219258
826.064,293.598595642187
826.183,284.4646994351757
826.301,276.9758248731862
826.42,280.68868191292825
826.538,276.68465583578745
826.657,276.23820551622254
826.775,286.0367768416794
826.894,286.7747421065302
827.012,290.9308891895629
827.13,285.6480752336344
827.249,281.5817114941561
827.367,269.77422221355226
827.486,258.97798834420394
827.604,256.9462566393577
827.723,267.04785826784473
827.841,274.93214387901577
827.959,296.82941650317366
828.078,323.32842072906305
828.196,352.43608296361043
828.315,367.29266294707554
828.433,375.44707842837624
828.552,370.14954585772887
828.67,348.784480819549
828.788,295.54501984421444
828.907,248.09945630461655
829.025,202.4218921755268
829.143,166.804710828631
829.262,134.85322301767636
829.38,115.5937445146671
829.499,110.8143873953149
829.617,105.51138726024044
829.735,112.02507154479636
829.854,136.9938979560621
829.972,172.3997068879806
830.091,228.73896610439652
830.209,297.32365157447475
830.327,375.5018123486015
830.446,460.8118622917532
830.564,537.020613533606
830.682,589.3341266802211
830.801,597.8415792207755
830.919,566.214832627131
831.037,509.18029382569426
831.156,437.56047363897613
831.274,360.2255019371067
831.392,304.4429111876182
831.511,271.5901905679998
831.629,250.98682059773188
831.747,243.25531209932524
831.866,238.31514559226054
831.984,240.2745461847628
832.102,241.79844894176722
832.221,222.09591959053986
832.339,204.09066532445394
832.457,198.29219870278334
832.576,189.556010810876
832.694,183.94590892249158
832.812,175.82925459503946
832.93,180.7938467864617
833.049,176.19521194133813
833.167,160.2829184082131
833.285,157.76956604480188
833.404,162.56936632330527
833.522,171.69124110530836
833.64,180.31068411364186
833.759,195.37235833497922
833.877,223.21866744840838
833.995,243.69192032759625
834.113,267.0950433366544
834.232,295.05660790415425
834.35,312.04847550195734
834.468,330.6438063032237
834.586,340.72311978847284
834.705,351.21109128238004
834.823,350.886941564166
834.941,341.5238308069909
835.059,330.167646456742
835.178,318.706700201731
835.296,307.5695634705295
835.414,302.54498085188186
835.532,315.3229956358316
835.651,333.83001474878574
835.769,354.25651438122037
835.887,373.06050319114433
836.005,399.6038859404622
836.124,427.9836323261437
836.242,443.45515360360014
836.36,454.7673675217494
836.478,475.8388887992058
836.596,485.0039165701687
836.715,505.6122343844214
836.833,517.3131928913151
836.951,537.7994327834901
837.069,558.9566683466608
837.188,571.3736441695714
837.306,588.9187585206208
837.424,605.2231802309775
837.542,607.1423205560525
837.66,612.2424132620799
837.779,613.4818999075012
837.897,611.6400012715372
838.015,616.6180160554865
838.133,613.8237364671413
838.251,622.5679850173244
838.369,627.1390733943475
838.487,622.1681704293792
838.606,622.2466181137615
838.724,628.424632897711
838.842,618.422561101574
838.96,607.5451646301124
839.078,591.6963395872223
839.196,599.6154799122975
839.315,606.6134081161606
839.433,607.5342800429673
839.551,617.4880524026746
839.669,625.0911754117324
839.787,615.1808785073702
839.905,596.4653867978132
840.023,582.5395054778664
840.142,576.4266111709065
840.26,561.3466172968473
840.378,545.6380519942165
840.496,536.7589239210233
840.614,534.0339084019424
840.732,520.59374136771
840.85,511.5760851559886
840.968,511.4770436628819
841.087,526.5416385334116
841.205,537.6547182524262
841.323,557.8846810883238
841.441,580.1709209804987
841.559,606.9844335999462
841.677,615.9382059596537
841.795,635.3421947695774
841.913,647.9340623673802
842.031,672.5726832119358
842.149,687.3472347924218
842.267,697.0568513079728
842.385,705.3785890356451
842.504,714.883876546867
842.622,714.9753112442362
842.74,721.4554905303503
842.858,724.7304750112696
842.976,719.1985330852629
843.094,708.5782794709442
843.212,690.8246925232922
843.33,686.6139627184975
843.448,687.1192502297201
843.566,684.5916373080424
843.684,698.0172711396117
843.802,719.0697447980205
843.92,720.5100972443081
844.038,726.0413587815049
844.156,725.2661268122081
844.274,740.9913277433443
844.392,753.7199918779436
844.51,753.596707960595
844.628,751.6024283722508
844.746,746.1137764895343
844.864,708.3801029617961
844.982,668.7719705595991
845.1,618.7421931357571
845.218,586.805056404556
845.336,554.5129413183763
845.454,532.3567569681272
845.572,508.9287111460168
845.69,490.4357302589714
845.808,448.6838749130517
845.926,417.5432749783875
846.044,387.3100343510827
846.162,364.76077640776055
846.28,332.31454876746875
846.398,313.00944666830264
846.516,283.8065090713011
846.634,258.11439398512215
846.752,224.6283395050038
846.87,201.44098632358683
846.988,190.2077456962825
847.106,173.72885933256072
847.224,151.04499415229105
847.342,141.89631817146136
847.46,127.265841145045
847.578,122.64506746561769
847.696,123.96250889218643
847.814,134.42177978828542
847.932,154.8271382475167
848.05,169.30729561735984
848.168,177.58453933929138
848.285,192.40807650441877
848.403,202.2489700415488
848.521,206.9937596825751
848.639,216.19915538420742
848.757,224.10325238454118
848.875,238.61600739353298
848.993,239.0854723592348
849.111,230.92376849376785
849.229,235.23738930362538
849.347,232.7613997238725
849.465,224.45683871554812
849.582,221.7124508673968
849.7,214.49533574651826
849.818,216.84358859100763
849.936,209.24898429263988
850.054,209.19896873886086
850.172,224.68228651841514
850.29,234.40629693866208
850.408,240.95801298661462
850.525,250.68808401292222
850.643,264.6874191084938
850.761,276.22268493999616
850.879,282.62115423470175
850.997,285.29061920040317
851.115,296.20164260766296
851.233,300.3966486989058
851.35,298.9042089027026
851.468,320.44380373853403
851.586,363.1859959769629
851.704,410.82082890803235
851.822,471.5197311031709
851.94,539.5900618697383
852.057,628.3513017272152
852.175,710.8467407188914
852.293,779.7949935633815
852.411,859.9874022520276
852.529,930.552105312968
852.647,976.3947304518304
852.764,1009.9239356772728
852.882,1038.3059547555292
853.0,1063.0464153922273
853.118,1068.4500794921291
853.236,1048.1654319037193
853.353,1029.98381461834
853.471,995.7208120515752
853.589,953.4205800475811
853.707,906.1852831085222
853.824,869.1344017538788
853.942,842.5848191005339
854.06,805.8828554948082
854.178,760.2899827981738
854.296,711.4780624824921
854.413,660.6618131624813
854.531,601.2317110286178
854.649,540.333210626356
854.767,480.6035413929254
854.884,428.02798471360717
855.002,360.9407397226006
855.12,302.54007481817405
855.238,245.14114151547932
855.355,201.75865842923483
855.473,153.00641108400322
855.591,122.5587088781644
855.708,86.4103655116025
855.826,60.968284957165295
855.944,33.13111350972401
856.062,19.880384507820235
856.179,3.797159432402962
856.297,-7.552292551002637
856.415,-11.377218594498443
856.532,-16.252855912072526
856.65,-28.754985292487117
856.768,-34.2078221537234
856.886,-42.738408453371164
857.003,-43.48712560412076
857.121,-42.9802411477732
857.239,-36.551547827353005
857.356,-13.474920518389961
857.474,-2.3641538684058947
857.592,25.749147168167262
857.709,57.05640896990539
857.827,84.47904390050547
857.945,112.740380643583
858.062,149.3062526813822
858.18,187.56969372431428
858.298,223.32166136408713
858.415,244.94376620842053
858.533,277.5139230008058
858.651,302.64078974990093
858.768,314.7183058496454
858.886,340.03305138661926
859.003,357.7997449755412
859.121,363.0010705990949
859.239,356.5088897291419
859.356,334.03748807996806
859.474,308.5167357814432
859.592,271.7812648681996
859.709,239.88042598958802
859.827,215.01595074734013
859.944,181.96186511548188
860.062,157.51903489487904
860.18,137.76884536691705
860.297,124.59441341471266
860.415,121.2901113326381
860.532,122.6715235362779
860.65,133.47804396502607
860.768,133.75296266217254
860.885,147.4729030043407
861.003,162.02228057594607
861.12,162.54828152417483
861.238,156.75653355465465
861.356,148.08859510894413
861.473,151.09598133855832
861.591,146.049687914493
861.708,139.64755033458357
861.826,151.75623526549674
861.943,155.2129721444618
862.061,151.30174365546142
862.178,139.6017705777166
862.296,134.91045550863006
862.414,137.86502788543106
862.531,135.251634894267
862.649,122.09192155678274
862.766,129.26640735349775
862.884,119.17855548787506
863.001,119.80412353567228
863.119,115.12492967870759
863.236,121.31153668754375
863.354,136.8799618781981
863.471,150.74708836755383
863.589,152.23326247595725
863.706,168.5003889653131
863.824,171.4748747620283
863.941,183.14459865398175
864.059,182.13640046801322
864.176,177.6217087755512
864.294,173.81437639044879
864.411,161.9464379447403
864.529,146.5434345639669
864.646,148.83999828276063
864.764,160.77552304051534
864.881,178.56992225714458
864.999,197.69938640883885
865.116,221.20980294148558
865.233,247.36783852175148
865.351,265.95704293318624
865.468,278.1947321931061
865.586,292.0055816261864
865.703,296.50734015017576
865.821,285.16840603347237
865.938,272.5662684535654
866.056,272.4100183195457
866.173,269.99402792578564
866.29,273.3711111250992
866.408,288.0036055798241
866.525,301.293242891692
866.643,310.74911396979337
866.76,315.9842058271154
866.878,312.5777392428787
866.995,310.4240865114558
867.112,298.77519568479465
867.23,295.37478970661834
867.347,298.65144000549844
867.465,296.48566606195425
867.582,297.8307146292324
867.699,306.0640748848223
867.817,304.82557366855076
867.934,312.5238689890758
868.051,327.93558422302067
868.169,345.08063279029886
868.286,360.04905798095376
868.404,364.9213792755046
868.521,388.2993282756829
868.638,414.0720824706664
868.756,441.23444705526026
868.873,470.42191986496226
868.99,518.1825528478245
869.108,563.4592031467039
869.225,603.8613945711245
869.342,646.8592569912158
869.46,701.7973791515669
869.577,749.3848519612684
869.694,782.4762208748659
869.812,789.6091482300218
869.929,800.4728115159135
870.046,801.4524921178222
870.164,797.7594454470036
870.281,784.0967018064878
870.398,772.7499754819896
870.516,761.1928595471018
870.633,739.6132327897033
870.75,705.6448614435599
870.867,669.9500831710097
870.985,645.4232702664249
871.102,623.5804400458229
871.219,591.2475665351777
871.337,556.2991086089484
871.454,522.202598734667
871.571,491.0896386439356
871.688,453.1766785532042
871.806,412.6723764711309
871.923,389.70833412931745
872.04,365.7546813978937
872.157,335.5603360257775
872.275,301.82659671426745
872.392,276.8867967966968
872.509,257.6076029397322
872.626,236.8374999918584
872.744,221.37215894874643
872.861,199.7024889013053
872.978,182.015502836548
873.095,158.34843019170404
873.213,131.8960761615786
873.33,100.33030221803315
873.447,76.60608671604608
873.564,52.09198247921655
873.681,34.237078741049004
873.799,12.787467019663403
873.916,15.820173930805908
874.033,17.15973249612814
874.15,15.323485375658784
874.267,4.454748694374413
874.385,-7.126745455134415
874.502,-19.84500849531875
874.619,-20.625383411885437
874.736,-23.825936423202613
874.853,-17.202135199847707
874.97,-16.6406572251654
875.088,-8.834564357792125
875.205,-15.376361605917158
875.322,-19.956341636310036
875.439,-16.01793991357989
875.556,-7.633618597861224
875.673,-12.678354383345056
875.791,-20.210661736787102
875.908,-32.846490655444384
876.025,-36.01541643146649
876.142,-38.20532483740493
876.259,-32.88504200546072
876.376,-28.584528850138387
876.493,-24.78017425216992
876.61,-28.39130422010016
876.728,-28.93740317525929
876.845,-31.328942660048483
876.962,-29.45049647285275
877.079,-20.754829808846367
877.196,-15.907149066043647
877.313,-13.469910731451169
877.43,-6.845051278338441
877.547,-10.143903930544315
877.664,-10.580886792501321
877.781,-16.913990807112064
877.898,-16.20653037405864
878.016,-21.27426908895933
878.133,-22.218234244892166
878.25,-16.374389649078715
878.367,-13.848755748743141
878.484,-19.693381782828762
878.601,-21.999591067234817
878.718,-25.453613080436995
878.835,-30.09700111844402
878.952,-42.48134479225385
879.069,-42.68346958438926
879.186,-42.26197040846692
879.303,-44.09865544231272
879.42,-44.59095002220396
879.537,-37.400838889830354
879.654,-31.074750227761267
879.771,-28.472529690099147
879.888,-33.03594956189684
880.005,-41.6576855060972
880.122,-54.363880862471646
880.239,-71.15453563102021
880.356,-92.0296498117429
