wavelength_nm,intensity
792.446,199.38082118195265
792.565,160.05839693952845
792.684,127.63857009970162
792.803,102.12134066247219
792.922,83.50670862784008
793.041,67.00454412567554
793.16,60.76644888758023
793.279,75.51709823822956
793.398,85.45129737242871
793.518,101.52575624688752
793.637,124.25822377935505
793.756,145.38376490489617
793.875,155.3170982382295
793.994,154.96125408238532
794.113,148.17770429883558
794.232,141.22965235078362
794.351,126.83484715597851
794.47,108.00108092221225
794.589,104.93095105208243
794.708,99.68939261052395
794.827,96.23657875771013
794.946,98.19675191788326
795.066,105.88246620359759
795.185,114.0746739958054
795.304,119.84523676636815
795.423,114.85649217762352
795.542,112.94740126853262
795.661,107.54913287026424
795.78,100.68766100879238
795.899,90.88852680965817
796.018,86.59675191788332
796.137,82.47467399580542
796.256,75.65649217762353
796.375,80.14566966680096
796.494,81.81493373606497
796.613,81.4209943421256
796.732,74.31276923390055
796.851,65.15086447199585
796.97,63.74913287026431
797.089,61.484197805329295
797.208,60.802812523944056
797.327,81.03744455857603
797.446,89.37077789190931
797.565,106.62099434212574
797.684,110.86428438541577
797.803,120.80021512134643
797.922,120.7906913118226
798.041,113.36038828151962
798.16,104.7603882815196
798.279,97.32142724255854
798.398,92.40540992654122
798.517,95.63051815164945
798.636,94.12056144169273
798.755,103.33268265381396
798.874,103.94740126853262
798.993,100.10064802177942
799.112,94.0287865499179
799.231,88.48419780532916
799.35,96.11450083563221
799.469,89.0729423940738
799.588,89.91969564082704
799.707,85.90151382264528
799.826,84.95692507805649
799.945,84.97510689623836
800.064,88.18463070576206
800.183,101.08939261052396
800.302,113.57770429883567
800.421,118.82878654991795
800.54,127.05129737242873
800.659,123.29372161485301
800.778,128.18809390922533
800.897,136.1378774590089
801.016,131.3456696668011
801.135,138.7638514849829
801.254,135.09025841138975
801.373,133.21926274039407
801.492,128.30497702610828
801.611,127.02878654991777
801.729,134.47467399580518
801.848,137.02445754558875
801.967,123.26428438541566
802.086,109.24897908401579
802.205,82.51054398354913
802.324,55.96497412787206
802.443,34.53657635709422
802.562,21.2017182245632
802.681,18.17735246452126
802.8,11.3145058957444
802.919,5.645246980748615
803.038,-1.0442346318225417
803.157,-10.991245848435675
803.276,-20.99216473649668
803.394,-30.627875387904865
803.513,-36.93758682321825
803.632,-36.216367919295024
803.751,-33.17778133628043
803.87,-25.889999317818464
803.989,-19.783472585194215
804.108,-15.873397696858614
804.227,-15.666058775919604
804.346,-18.658262143152506
804.465,-15.001759232272763
804.583,-8.851447759831887
804.702,1.7379612147521777
804.821,6.143056701956584
804.94,10.912716439112266
805.059,13.907963417536727
805.178,12.816567721764322
805.297,9.11366742195989
805.416,3.721133418813519
805.535,3.2188792910562976
805.653,1.7518554280524825
805.772,2.962381350469668
805.891,10.977956206861366
806.01,29.240391469806212
806.129,53.546889174553414
806.248,91.94621171486523
806.367,120.29658502034245
806.485,146.8459730244499
806.604,160.21456994271597
806.723,165.76238764020292
806.842,160.99159061907523
806.961,153.4086723858262
807.08,146.02142514824823
807.198,148.30603938253185
807.317,138.02441985058164
807.436,131.88306005889132
807.555,124.97286909836978
807.674,119.64709372226378
807.793,126.06677289161236
807.912,137.83363820814714
808.03,161.73123945541806
808.149,189.9976718715202
808.268,213.31085753437577
808.387,231.3686319418203
808.506,235.17532409818273
808.624,229.56902924155816
808.743,221.05797248017177
808.862,205.19280316467274
808.981,182.7847767063166
809.1,170.40185847306844
809.219,157.36006578094577
809.337,151.10442027497032
809.456,143.20808212830218
809.575,143.58273965262975
809.694,145.9799079994681
809.812,150.5476391168693
809.931,150.77164729054758
810.05,160.0718459404162
810.169,166.92615714439745
810.288,172.78912635703674
810.406,176.62438994197026
810.525,177.36528123253134
810.644,173.22998204690194
810.763,178.90853567512542
810.882,184.20267371893337
811.0,195.89508016100967
811.119,204.56930478490432
811.238,222.22534759061702
811.357,237.99048130542045
811.475,240.1729310375398
811.594,244.66533747961574
811.713,252.3231118870597
811.832,256.99906811268556
811.95,266.4828165461037
812.069,263.9050931180501
812.188,276.98710994973675
812.307,276.67172418402083
812.425,283.29746395943016
812.544,280.7924678041036
812.663,287.0675582288634
812.782,285.9712200821945
812.9,299.21687327751687
813.019,309.9404485507615
813.138,331.94973810972067
813.257,347.41443892409114
813.375,368.5120401713622
813.494,367.05552886452074
813.613,374.00767556633724
813.731,363.80917291750416
813.85,360.480800138801
813.969,353.2978819055525
814.088,352.45782081516137
814.206,356.47490258191317
814.325,358.01579387247466
814.444,358.09088429723533
814.562,354.04909160511295
814.681,346.40643311212466
814.8,348.25554951091124
814.918,336.8016356066675
815.037,331.5875485422506
815.156,334.8929419973142
815.274,333.9195475735901
815.393,333.86043886415166
815.512,328.8195119728952
815.631,325.65564135869505
815.749,335.5567058094299
815.868,335.23352783592236
815.987,341.783077135142
816.105,346.6010247027599
816.224,344.01637486778054
816.343,333.3849717860479
816.461,317.93278948353606
816.58,295.99402709444416
816.698,285.3531002031877
816.817,277.24290924266705
816.936,267.86345421288206
817.055,260.8467697458675
817.173,249.0499986987661
817.292,239.21859561703246
817.41,226.59065573876185
817.529,218.83804053581588
817.648,217.21356386100842
817.766,216.69125168836544
817.885,217.08495683173973
818.004,218.25182214827421
818.122,219.68015932628063
818.241,232.60373459952524
818.359,235.61475576021581
818.478,255.48115623305893
818.597,257.59957219361877
818.715,274.66383344703945
818.834,307.91078814781326
818.953,385.8278431416255
819.071,517.9102294252122
819.19,649.4737721175892
819.308,745.2619000667269
819.427,779.964960199869
819.546,725.5064913764102
819.664,619.9803097960328
819.783,482.8210534087866
819.901,374.4295602130717
820.02,301.10800713343065
820.138,246.94002810591
820.257,210.38676532694058
820.376,170.30427999412478
820.494,149.94040937992358
820.613,130.7860625752462
820.731,134.7338802727331
820.85,144.85658974511165
820.969,156.86847670666748
821.087,176.98079656865605
821.206,200.75891729644536
821.324,210.4331419203383
821.443,222.21126264812733
821.561,212.45258683911976
821.68,198.7449932811943
821.798,170.49454258041172
821.917,143.40166763720484
822.035,118.99190957711482
822.154,114.19687013174338
822.273,114.7550774396186
822.391,128.65527608948514
822.51,136.1459509298277
822.628,135.77428810783255
822.747,142.7420192252314
822.865,146.3746854075654
822.984,147.24111782366577
823.102,145.07205240426853
823.221,147.49952378140824
823.339,157.05513368668662
823.458,157.3735141547357
823.576,155.69535782624808
823.695,160.6942577748167
823.813,160.06545209567983
823.932,164.77257715247367
824.05,156.31866324822852
824.169,156.81626449549856
824.287,157.66797829688122
824.406,147.92402110259292
824.524,151.37573490397577
824.643,150.47160454951455
824.761,150.20383783141693
824.88,155.18369016093837
824.998,162.7367026636199
825.117,165.18841646500277
825.235,162.9977060239613
825.354,155.08145445737875
825.472,157.41195613754962
825.591,151.2082586835213
825.709,150.59244001737176
825.828,152.21038758498852
825.946,156.55127887554892
826.064,145.10169397563317
826.183,142.35600517961348
826.301,139.64408261736003
826.42,135.88021200315856
826.538,142.80638467900042
826.657,152.66589068817547
826.775,158.68037505232894
826.894,162.36931829094118
827.012,156.58899746028936
827.13,160.25716147812227
827.249,157.87078004140966
827.367,151.90950682980522
827.486,158.79325526322253
827.604,162.40427642391234
827.723,164.35728892659353
827.841,175.24969536866874
827.959,188.6520585207009
828.078,203.01978963810117
828.196,211.4455294135102
828.315,219.79248131013162
828.433,225.7177881851082
828.552,216.7729651899548
828.67,194.95974392640318
828.788,173.72401184034067
828.907,149.66939867922605
829.025,123.3207621696584
829.143,93.96705297711881
829.262,69.72177378981937
829.38,53.20780543094851
829.499,46.10055449048956
829.617,39.85600083831087
829.735,50.0404644740925
829.854,69.7806631315327
829.972,95.42218699907409
830.091,125.82612818504352
830.209,160.49161944575332
830.327,205.33550731596887
830.446,258.93238703375084
830.564,302.51796079836504
830.682,334.55808001752473
830.801,344.70988754837254
830.919,328.1638595813847
831.037,291.0974852940503
831.156,241.92894650455122
831.274,196.77945533409954
831.392,155.38580831949193
831.511,132.41207472479758
831.629,121.77946667122868
831.747,114.73040840120935
831.866,104.8422256942878
831.984,95.0482356134107
832.102,94.76104249234646
832.221,84.21487609156911
832.339,73.8117946947931
832.457,74.99315233729888
832.576,78.47201162966971
832.694,72.5304064040902
832.812,62.03335722685965
832.93,56.20153340967702
833.049,58.26423104661818
833.167,53.75382941974663
833.285,52.65961810894895
833.404,61.6538362103652
833.522,71.18092156019594
833.64,73.60857939875424
833.759,81.32852838527174
833.877,90.55049608155338
833.995,105.80391367504512
834.113,121.19097043024081
834.232,134.2014976287582
834.35,150.53410274935345
834.468,159.89354769678863
834.586,163.80710519833633
834.705,166.01503499425633
834.823,156.32339769060923
834.941,140.41098116618298
835.059,132.33233087552313
835.178,133.93073686191968
835.296,138.29710821628169
835.414,144.466942774107
835.532,157.09651759167264
835.651,169.31916600231193
835.769,180.13142480256158
835.887,186.36965762878526
836.005,202.74988179700017
836.124,223.88508432019339
836.242,237.45924788234768
836.36,251.55635516744582
836.478,262.54177414085586
836.596,275.431089218162
836.715,288.9706207456847
836.833,294.7924033554586
836.951,306.5128872639338
837.069,316.8576135966515
837.188,329.69065161768106
837.306,350.1453346603557
837.424,362.96971467272715
837.542,374.74560983661377
837.66,382.2210721000673
837.779,387.82380709079365
837.897,391.2802217351995
838.015,385.5227835657526
838.133,385.16967440063496
838.251,386.15769077664305
838.369,378.4132396201837
838.487,368.188268983205
838.606,363.47758406051196
838.724,368.69244026336025
838.842,365.14539170430385
838.96,359.8182565651608
839.078,353.90930324419975
839.196,354.08000360289213
839.315,356.0368511477316
839.433,352.66902336789565
839.551,356.04318693005075
839.669,365.24505611991117
839.787,371.5776612405076
839.905,364.16654341738086
840.023,349.48183252066104
840.142,344.3936584204779
840.26,330.6578652726759
840.378,316.05886866167054
840.496,306.1741577649508
840.614,301.52667630546046
840.732,307.11729008406536
840.85,304.78755754232395
840.968,306.8041453469028
841.087,307.82506215581077
841.205,303.170654289394
841.323,301.326636033367
841.441,307.93543163015374
841.559,316.1702012529145
841.677,330.58592325662755
841.795,346.8838963425917
841.913,367.30567895236527
842.031,382.2322234669008
842.149,394.1059541286224
842.267,394.27925188991117
842.385,405.97116436981474
842.504,411.8016049882466
842.622,413.5013096759426
842.74,412.4867286493529
842.858,418.99855454917014
842.976,421.47401681262363
843.094,422.19536652196456
843.212,424.7227768373659
843.33,435.3333040358841
843.448,446.9862554768267
843.566,451.3067393853018
843.684,450.0298206963743
843.802,456.2559323104771
843.92,456.0655937081299
844.038,461.569627400155
844.156,468.8554792739984
844.274,477.5984740049847
844.392,479.237572632075
844.51,477.3822989647932
844.628,468.0300556005419
844.746,458.34188150036005
844.864,436.955871902343
844.982,415.1049272393909
845.1,388.3422942647503
845.218,368.7805270909754
845.336,352.13910623754657
845.454,333.0630533494857
845.572,317.8813727557971
845.69,301.6477441101604
845.808,282.4963665467751
845.926,264.5770236154247
846.044,243.36936899576276
846.162,231.7348745492613
846.28,216.96098616336587
846.398,195.5394787298515
846.516,184.29719207555763
846.634,167.09126905762736
846.752,147.5658655202165
846.87,129.50366544600922
846.988,116.9791277094643
847.106,98.06552898252863
847.224,81.9556043934871
847.342,73.4077161267019
847.46,66.9870434056234
847.578,63.55246507449513
847.696,61.2130287055032
847.814,68.64829691912259
847.932,86.55510063087013
848.05,94.8657208694867
848.168,117.12760921798017
848.285,132.8918380638657
848.403,140.61584859929474
848.521,146.7190799139446
848.639,149.38681339309656
848.757,155.71255553025725
848.875,167.5950076241279
848.993,173.54152898206792
849.111,190.85341830537584
849.229,196.56271022608635
849.347,203.01312768792252
849.465,200.66094774716146
849.582,188.00573750337009
849.7,177.82238873144018
849.818,178.53600965648005
849.936,176.47127560316486
850.054,185.22299176629974
850.172,190.2205953753221
850.29,211.66668383282928
850.408,213.1837679613322
850.525,211.40821139719424
850.643,220.211875612277
850.761,235.53069134251132
850.879,242.58110880434742
850.997,241.6808769155341
851.115,242.22739827347408
851.233,240.77132222881667
851.35,233.2286660975792
851.468,242.23059871093045
851.586,267.92170881345925
851.704,301.6266717298409
851.822,338.16540087998874
851.94,374.58205210805863
852.057,424.9883137257385
852.175,460.078558027401
852.293,502.5263780866393
852.411,533.3681375398169
852.529,569.5371697202672
852.647,601.6031715976874
852.764,622.6284808344147
852.882,647.4286818460337
853.0,665.1379737667432
853.118,671.0126336528206
853.236,669.5660814176856
853.353,655.2892261522477
853.471,638.0435397179785
853.589,623.4835675694237
853.707,592.3963226935964
853.824,566.5636232723143
853.942,538.7118762319847
854.06,517.21164434317
854.178,485.0715856145283
854.296,453.84494679930657
854.413,423.36116512694184
854.531,391.2202405974344
854.649,346.75031173892273
854.767,310.1046253046536
854.884,273.56283497428063
855.002,234.7093563322194
855.12,187.09916773344816
855.238,144.13400077969854
855.355,115.27272992984496
855.473,83.71318506442506
855.591,59.03286332690733
855.708,46.925938653235264
855.826,24.322703776103868
855.944,5.432994424273286
856.062,-6.6507464098645155
856.179,-11.66338276480474
856.297,-10.51214233923509
856.415,-7.444106705640124
856.532,-15.808184579224204
856.65,-20.283871254817647
856.768,-35.785530956228556
856.886,-48.315900147128616
857.003,-48.06072043420678
857.121,-45.47995211218557
857.239,-33.36782010681894
857.356,-18.871422372052557
857.474,-14.498821732882512
857.592,4.375070546923977
857.709,21.317641325221352
857.827,37.146364349547596
857.945,55.53897621127227
858.062,73.32278276834927
858.18,100.17640116593216
858.298,116.10967072828123
858.415,131.19562509384593
858.533,154.81491279274405
858.651,173.470564128006
858.768,184.47859641564906
858.886,200.37840359506703
859.003,212.7474748437492
859.121,216.79793137381668
859.239,214.12024937574563
859.356,204.04170157680883
859.474,187.4298204445388
859.592,166.94348043780985
859.709,149.8545430284837
859.827,138.76214241569434
859.944,120.35978509294839
860.062,110.96868318145789
860.18,103.35593624832237
860.297,97.05574342774094
860.415,94.81702246863148
860.532,90.42245735367774
860.65,90.34217795300962
860.768,92.13982063026356
860.885,87.9149524850067
861.003,90.73597178563728
861.12,91.98036770964467
861.238,99.98147359036221
861.356,110.95747124597187
861.473,109.06939963751233
861.591,113.52418517191013
861.708,115.55299668033388
861.826,111.07531468226429
861.943,99.89806558462766
862.061,99.40739657357129
862.178,95.78079682658422
862.296,98.81220573760586
862.414,93.97781378282642
862.531,102.59017507479997
862.649,103.90296926720617
862.766,104.92312276697163
862.884,103.374445097906
863.001,104.56256396563694
863.119,99.85890794159295
863.236,97.8037367660339
863.354,92.99445303636224
863.471,94.58863251015372
863.589,103.06159986273329
863.706,112.4488529295986
863.824,128.19627915663727
863.941,138.243272483243
864.059,145.55952987911274
864.176,145.37362277281807
864.294,133.76693644574436
864.411,120.22085617927672
864.529,115.97520881324216
864.646,115.84471296235904
864.764,124.90988810714677
864.881,135.68328836015934
864.999,151.7034418599249
865.116,168.11060834670332
865.233,180.4692899849968
865.351,188.91022270554134
865.468,199.09401256894319
865.586,213.4769366314793
865.703,218.7767438108985
865.821,210.5449492587161
865.938,203.71921531259437
866.056,190.8025722755636
866.173,188.20194655455018
866.29,183.4844377166537
866.408,188.9167124285409
866.525,202.19227718371803
866.643,209.07476834582144
866.76,212.35552790619343
866.878,207.25360348388128
866.995,199.430466940357
867.112,195.7830879725903
867.23,187.95302502213957
867.347,184.9091092578361
867.465,188.25393808227707
867.582,189.01002231797344
867.699,195.34013252769597
867.817,191.77154143871712
867.934,191.56918411597218
868.051,198.2274328538334
868.169,204.8268071328202
868.286,211.80540219102778
868.404,218.30953837477642
868.521,230.02492996978026
868.638,242.71521333967598
868.756,258.4600421641171
868.873,273.83171081539825
868.99,299.4605223238223
869.108,324.24690958982217
869.225,354.2402232627485
869.342,381.07422957636743
869.46,415.14373372548397
869.577,434.96475302611566
869.694,453.1095818505569
869.812,454.8673976879849
869.929,451.0988065990061
870.046,460.18822416803573
870.164,460.4464729058967
870.281,457.22420216323815
870.398,454.17768899633705
870.516,448.75455245281256
870.633,433.7002470781193
870.75,414.70048715797134
870.867,392.46263199972816
870.985,383.20746082416883
871.102,363.43367492999494
871.219,345.4287202046522
871.337,326.0869689425129
871.454,316.165131100287
871.571,295.76190797667584
871.688,278.8426675370472
871.806,253.5494011233926
871.923,237.90981436341752
872.04,215.83559556881036
872.157,195.57782699065325
872.275,174.23780733024498
872.392,161.24237641442534
872.509,147.51794116960133
872.626,141.77792150919282
872.744,130.76950358038582
872.861,124.60350989400304
872.978,104.84097941108342
873.095,96.38753983725462
873.213,83.66223879156422
873.33,66.72906750770402
873.447,52.410378258525654
873.564,42.91162365698125
873.681,29.046981398858215
873.799,17.950023706583757
873.916,11.493749762612977
874.033,14.155565712539897
874.15,10.913385808910743
874.267,-0.9728870825353468
874.385,-5.734326374481035
874.502,-11.332461032376493
874.619,-17.49413615377542
874.736,-17.140771929975017
874.853,-8.821088938588725
874.97,-8.923806937193937
875.088,-7.523509201711741
875.205,-5.346953607670246
875.322,-7.105426639464619
875.439,-9.849041063940142
875.556,-15.4323745785717
875.673,-10.589612474991087
875.791,-9.82442250645337
875.908,-9.144414160290424
876.025,-8.342874831303952
876.142,-6.677281097218497
876.259,-8.963097344659065
876.376,-9.94713838898144
876.493,-18.103478302333233
876.61,-16.309158222535252
876.728,-17.08390465547093
876.845,-9.739766247328046
876.962,-4.358259788658191
877.079,-0.37361734168448235
877.196,5.339750084561319
877.313,4.388103462239685
877.43,-2.0303013779956114
877.547,-4.16387137639037
877.664,-11.274802649286004
877.781,-12.916510657124242
877.898,-4.484829990336065
878.016,-8.652265999254434
878.133,-3.975775295209991
878.25,-3.603048186634724
878.367,-8.723689204715932
878.484,-5.599941240903236
878.601,-8.831057082517702
878.718,-6.855120170261299
878.835,-0.3524374153708374
878.952,-5.912904839089751
879.069,-4.5467025260806775
879.186,-13.001826292367003
879.303,-19.383441026807915
879.42,-12.291044541741288
879.537,-15.44054811878124
879.654,-11.411199808290027
879.771,-9.116935977515926
879.888,-9.639329143340257
880.005,-14.363140864317657
880.122,-22.133535508780916
880.239,-32.95051307673003
880.356,-46.814073568165014
