wavelength_nm,intensity
792.446,221.47347355395996
792.565,185.7462008266872
792.684,154.61243459292092
792.803,128.07217485266116
792.922,106.12542160590777
793.041,82.74620082668702
793.16,68.85356013404635
793.279,66.74446922495547
793.398,76.92628740677358
793.518,91.03624411673022
793.637,130.24836532885138
793.756,162.8371099175959
793.875,185.56957745006343
793.994,193.70983719032319
794.113,184.21546489595084
794.232,158.90983719032323
794.351,135.12195840244448
794.47,111.41459909508518
794.589,107.79814887863495
794.708,107.49338697387307
794.827,107.81892809941422
794.946,122.09598437647053
795.066,128.76871164919774
795.185,135.08732636781258
795.304,145.62065970114588
795.423,141.17650385699
795.542,133.05356013404628
795.661,120.09165537214153
795.78,107.22672030720652
795.899,100.51849519898141
796.018,96.60767268815886
796.137,88.91945117044756
796.256,83.23174673957979
796.375,80.6169731792669
796.494,75.49918482034155
796.613,64.11728000396153
796.732,61.54058549719408
796.851,63.68011190427146
796.97,62.10760128563825
797.089,58.704877807302296
797.208,70.02336645017844
797.327,92.54272089392055
797.446,107.34432641991391
797.565,117.07580207577749
797.684,116.50597903034254
797.803,107.09200014075175
797.922,88.3845147576543
798.041,79.25884755637475
798.16,81.57387299578775
798.279,87.19539194169421
798.398,90.52167279236272
798.517,100.25920905428667
798.636,101.75345527292072
798.755,104.29878374263694
798.874,107.36965333789438
798.993,110.61368310631181
799.112,114.1538167708332
799.231,115.226417967822
799.35,108.83927890507047
799.469,108.28417447435348
799.588,100.01997913454548
799.707,94.59387903283265
799.826,96.01799538133632
799.945,93.63778272551093
800.064,98.66536227747788
800.183,107.32584226234522
800.302,115.41489367578389
800.421,127.22169400697146
800.54,137.7523038619686
800.659,145.47165830571043
800.778,163.11395647239598
800.897,164.31383039665747
801.016,165.03058743780218
801.135,165.78890292050528
801.254,164.80262965861954
801.373,168.38518756556488
801.492,173.91320001796456
801.611,172.98926441841618
801.729,178.795198948738
801.848,167.45481313273962
801.967,150.58369138600543
802.086,130.71430124100286
802.205,107.2059500570394
802.324,81.41056436827176
802.443,56.38703081595443
802.562,33.05355267924942
802.681,21.959351874092043
802.8,11.080961721623874
802.919,3.8758017166997094
803.038,-3.932194801011274
803.157,-5.575904851591407
803.276,-15.810131702145224
803.394,-17.67418952325839
803.513,-20.329219643553138
803.632,-18.62196581562092
803.751,-19.61821699681774
803.87,-16.959639954825036
803.989,-16.532843542350598
804.108,-17.350410316167256
804.227,-16.207999179355966
804.346,-9.830878366495929
804.465,-9.513351580298972
804.583,-9.557279109460591
804.702,-5.367892054895117
804.821,-6.162900267563305
804.94,-10.285009826442062
805.059,-8.22044552978196
805.178,-4.419024513370258
805.297,-5.139296226654155
805.416,-1.339553730461731
805.535,6.5077199857521055
805.653,10.930462166623748
805.772,14.69906570727234
805.891,30.423168513759514
806.01,51.43357556548712
806.129,76.33756982104276
806.248,111.95497622644922
806.367,151.95930418973654
806.485,180.25928442744993
806.604,197.54513740159098
806.723,211.91843626317757
806.842,211.98351001653907
806.961,198.50918983050676
807.08,187.84179605140102
807.198,177.61422911212236
807.317,167.37886996505165
807.436,158.71753679200702
807.555,157.3029568657157
807.674,161.9039613550086
807.793,171.11708705642275
807.912,192.87999630762062
808.03,222.6784033943164
808.149,250.99629100049265
808.268,290.0752175677079
808.387,321.7376939184728
808.506,328.3161875852552
808.624,318.1275816849379
808.743,301.07404071968574
808.862,277.172014905949
808.981,246.04661246883586
809.1,224.21731392782675
809.219,224.75511495391714
809.337,219.67559996269148
809.456,206.4177299931108
809.575,196.8767431404131
809.694,202.14268269464182
809.812,201.12204216229046
809.931,196.03473496327246
810.05,207.02794724477405
810.169,230.09821580333198
810.288,239.64121163461738
810.406,246.6690559507513
810.525,245.89170546169035
810.644,251.58967964795409
810.763,252.6253161718802
810.882,259.64709988195335
811.0,273.61953294267573
811.119,292.8205374319695
811.238,312.0466501463714
811.357,324.99051177852215
811.475,323.9776634539628
811.594,321.8132999778884
811.713,322.49655554943297
811.832,327.2975600387264
811.95,332.0301662596213
812.069,338.8173179350618
812.188,353.75858216461467
812.307,362.87127496559617
812.425,370.89998508259487
812.544,375.56246143336006
812.663,387.7721239313115
812.782,397.1497517972283
812.9,410.87629741206297
813.019,429.3188603429151
813.138,444.98047089281476
813.257,467.6065836072166
813.375,477.2231725120946
813.494,481.71075708796843
813.613,483.9593806248811
813.731,473.0651470189366
813.85,461.2860649281437
813.969,458.0290607594286
814.088,454.27768429634114
814.206,449.38951129645693
814.325,446.58532098055537
814.444,452.1378406213638
814.562,448.0860312578433
814.681,441.51647297657394
814.8,436.7036246520147
814.918,431.88731312399256
815.037,431.0822570072258
815.156,424.42958184284
815.274,433.02539152693885
815.393,437.0047509945875
815.512,442.4178766960023
815.631,449.4180153844301
815.749,452.3999722546762
815.868,452.335175878169
815.987,452.4712453025277
816.105,447.1146740342456
816.224,439.44901185687246
816.343,424.210189506339
816.461,410.8778606622989
816.58,394.18449285721977
816.698,373.9448047058202
816.817,363.0332550825591
816.936,353.63339377098623
817.055,344.90972293560367
817.173,335.0466581608271
817.292,323.2485284509857
817.41,312.6426065333521
817.529,302.52932530835926
817.648,294.6913687586911
817.766,301.81098796659876
817.885,308.7375335814327
818.004,318.5246852568723
818.122,322.64257286304826
818.241,330.46522237398614
818.359,327.4593004563528
818.478,337.3657547904079
818.597,328.9211656570941
818.715,353.93293898482784
818.834,375.0120353154624
818.953,493.13117722274603
819.071,615.2626395542094
819.19,769.4449529293491
819.308,881.0960786359663
819.427,947.7176884995976
819.546,896.6912874854964
819.664,785.1566150708111
819.783,615.9860835481584
819.901,504.58678491196616
820.02,381.1997103251865
820.138,320.4238558244433
820.257,275.93255245817784
820.376,253.22529452324898
820.494,225.92326870951135
820.613,204.60132947586033
820.731,195.741727904547
820.85,208.22498347609076
820.969,223.40347714287253
821.087,254.21920024688364
821.206,279.9717198876913
821.324,298.1961010003604
821.443,298.8074951000425
821.561,286.32278530362106
821.68,269.0917551608796
821.798,244.04081159822482
821.917,220.28943513513718
822.035,204.86706300105405
822.154,190.79534021762012
822.273,187.36863907920787
822.391,181.118561317419
822.51,185.3152368023835
822.628,184.4201373955731
822.747,185.46962673335128
822.865,190.51045806247134
822.984,193.8067006470028
823.102,187.0128999414909
823.221,197.34983516671497
823.339,201.54391324908192
823.458,212.6314978249552
823.576,209.09570577745185
823.695,218.81013018016472
823.813,218.82585328417628
823.932,228.5749097215213
824.05,214.63392286882308
824.169,218.06090138409013
824.287,213.4402608517379
824.406,207.97113547090075
824.524,204.45958584763923
824.643,204.593923670265
824.761,194.2564000210293
824.88,198.74138719430445
824.998,187.37875531996076
825.117,190.77629660579015
825.235,194.52535304313463
825.354,196.90211510818474
825.472,215.14381223816986
825.591,223.8391890218346
825.709,219.18218485311846
825.828,217.49054864977035
825.946,205.92705097456093
826.064,197.30641044220857
826.183,184.17061839470455
826.301,186.78374409611837
826.42,194.1838827845453
826.538,203.29224658119728
826.657,208.67247184971075
826.775,216.30724257276967
826.894,218.24158039539563
827.012,214.33522557732877
827.13,207.95787508826626
827.249,207.64199646067573
827.367,204.47157237853995
827.486,209.71326950852546
827.604,215.16881945236386
827.723,226.28670705854006
827.841,235.09117475129628
827.959,241.3294086778186
828.078,254.72262095931916
828.196,271.77211029709673
828.315,278.1609935742683
828.433,286.4295305310935
828.552,288.0668986567499
828.67,273.7137905919302
828.788,241.00570417213214
828.907,201.43008921924127
829.025,165.02489898998374
829.143,138.011999145392
829.262,98.77092470600593
829.38,84.85012049780968
829.499,81.99457404614672
829.617,79.73499819557678
829.735,86.68583113281103
829.854,104.34437058584592
829.972,131.478269188946
830.091,167.2558446569833
830.209,204.60572421248895
830.327,260.41535215737923
830.446,319.2887081693859
830.564,371.8841421034705
830.682,404.8103119682913
830.801,407.95120044783073
830.919,389.3249893602706
831.037,338.7472631211954
831.156,282.4942122067956
831.274,244.06540371663846
831.392,203.12230951219556
831.511,190.12899885753637
831.629,172.94088300807203
831.747,159.03674984259027
831.866,151.06681581130772
831.984,136.41982550296868
832.102,132.31482653662087
832.221,133.74575830620353
832.339,119.24861081103136
832.457,125.0071236626367
832.576,120.44814859343748
832.694,122.86502608011413
832.812,121.69614739831303
832.93,123.31741323591821
833.049,125.08671391630972
833.167,116.96265922650355
833.285,110.28444189440866
833.404,112.89765030757542
833.522,110.75073400851792
833.64,118.33390547029109
833.759,126.85489767224823
833.877,142.69125082731034
833.995,162.2731784440195
834.113,173.68665669881076
834.232,190.49494014840718
834.35,207.95430584908596
834.468,216.2093425454358
834.586,226.82455240195878
834.705,234.7601085788283
834.823,234.99350025353328
834.941,232.51693521828162
835.059,214.8966472393071
835.178,201.19497397894725
835.296,189.94957777486457
835.414,189.04097810757833
835.532,204.0769671848807
835.651,222.47832422755107
835.769,240.3498111403512
835.887,257.00138463323776
836.005,271.32308799625434
836.124,294.4690337835133
836.242,310.3829449387375
836.36,327.7228301199358
836.478,349.5882564266751
836.596,366.2562801360118
836.715,375.7355592566039
836.833,379.76115872351625
836.951,395.1001781038484
837.069,408.14136198634503
837.188,418.1557060420019
837.306,427.6046821322909
837.424,448.2034417723635
837.542,464.4922447024794
837.66,470.74381819536586
837.779,481.46292415578455
837.897,494.71796085213373
838.015,492.76001053549567
838.133,488.09296930976666
838.251,481.23718349529315
838.369,489.22988252930463
838.487,486.49271143344606
838.606,483.2758866579338
838.724,482.3724817958416
838.842,485.7643150289874
838.96,477.1076634136483
839.078,465.97655292385025
839.196,460.7787757673854
839.315,465.8156306455527
839.433,461.6143902856247
839.551,461.03566074820765
839.669,458.7798749337345
839.787,457.6929202880924
839.905,449.16613880262344
840.023,448.13286381066087
840.142,447.64937236848175
840.26,445.3321146925365
840.378,437.31269251442666
840.496,428.057772500819
840.614,417.7422464266054
840.732,400.70550823117975
840.85,392.44452761151183
840.968,388.8268370351338
841.087,388.79529364490287
841.205,392.9983822893041
841.323,400.9053670376012
841.441,423.7041266776731
841.559,444.63621965107825
841.677,457.4800009361717
841.795,466.9350376325204
841.913,468.4749228137175
842.031,482.6234660035727
842.149,497.43001785143645
842.267,510.5170891798196
842.385,531.4136843177266
842.504,549.1042188495729
842.622,552.1618529485188
842.74,545.9961104240879
842.858,545.4546103238995
842.976,553.1607292713303
843.094,558.7127356646484
843.212,557.3755645687893
843.33,554.5076575421942
843.448,566.4163738922227
843.566,566.0454365625974
843.684,574.2216853801583
843.802,587.7910077907924
843.92,586.7707198118164
844.038,593.6422067246151
844.156,597.339667663388
844.274,604.2561762212085
844.392,613.9874033937481
844.51,618.2554271030842
844.628,617.2671737561435
844.746,607.0962364265188
844.864,573.2664246380198
844.982,546.1950544079621
845.1,511.69164954586995
845.218,482.84885074438387
845.336,452.32466666151265
845.454,431.78230076045963
845.572,405.53170975118144
845.69,383.4317680925526
845.808,362.8885363906337
845.926,349.90807525148523
846.044,340.0124625971853
846.162,329.63373305976836
846.28,303.2186398859878
846.398,278.7031138117742
846.516,254.82568297565578
846.634,226.70582789711298
846.752,201.02060485320231
846.87,180.24100951491937
846.988,169.73500725022964
847.106,155.36666732320214
847.224,136.73252653037378
847.342,132.268948508108
847.46,134.16208044255222
847.578,137.5236106453947
847.696,137.89206725516368
847.814,145.36874897315772
847.932,151.09997614569727
848.05,151.77232885936218
848.168,160.86372919207463
848.285,172.4849996546572
848.403,177.90627011723996
848.521,188.38987824216036
848.639,192.30032619392065
848.757,210.24194297684966
848.875,227.59135196757092
848.993,233.6299384474696
849.111,249.34904440788773
849.229,260.8733451735008
849.347,262.7612823027504
849.465,261.6509510337316
849.582,256.4271998512929
849.7,264.07444433985006
849.818,272.68099618771464
849.936,275.16720171523286
850.054,292.10189209123587
850.172,302.34134437200066
850.29,313.1487620207307
850.408,319.34579005907096
850.525,324.6034241580172
850.643,330.8229630188682
850.761,337.71869235590975
850.879,343.9070623855921
850.997,348.48244540228745
851.115,346.2006855618399
851.233,343.18126338372997
851.35,342.6674689112475
851.468,344.4714233565142
851.586,363.9030834294863
851.704,390.32435389206876
851.822,427.1153213243482
851.94,485.99892944926853
852.057,551.1829704746217
852.175,613.8276175605813
852.293,675.7571131313894
852.411,722.455439871029
852.529,768.732987389889
852.647,795.257288155502
852.764,816.4015023410284
852.882,844.5890065698447
853.0,870.0578960800464
853.118,880.7137985772608
853.236,872.8554153601897
853.353,859.5243048703912
853.471,835.175878363277
853.589,801.6923869210975
853.707,766.6253456953684
853.824,739.20765511899
853.942,721.2756788283259
854.06,691.1662133601728
854.178,645.2879167231883
854.296,611.6130832896673
854.413,563.5053494232459
854.531,512.0149315741405
854.649,456.1574141579356
854.767,409.93885778069176
854.884,360.5410806242271
855.002,303.44287056732935
855.12,250.01479038056152
855.238,214.03952404660745
855.355,179.01663866503458
855.473,148.37426986257816
855.591,114.98981793978905
855.708,94.86311226339613
855.826,67.96913288199792
855.944,35.73352341636474
856.062,14.298125109855025
856.179,-0.5117010321224158
856.297,-13.856440290508136
856.415,-21.300701706553774
856.532,-30.868709764675394
856.65,-28.431011800309022
856.768,-24.787750716504007
856.886,-30.435167681340417
857.003,-25.46591956297053
857.121,-26.574938766810426
857.239,-21.340868591942566
857.356,-13.951730336598716
857.474,-13.521762703160613
857.592,-1.4139217085193696
857.709,21.524525624299965
857.827,35.21682219086928
857.945,61.57183001838269
858.062,86.60351364179789
858.18,117.57032934721866
858.298,148.3807758313322
858.415,170.0584883617285
858.533,190.3838199397438
858.651,217.5463809549886
858.768,229.5487688100602
858.886,244.66977138374682
859.003,254.38211594877532
859.121,250.33168995103313
859.239,248.1721730442
859.356,230.3278076525183
859.474,214.11287949027343
859.592,209.4035790336561
859.709,193.96181104457114
859.827,177.88974002518302
859.944,153.03671662484243
860.062,132.29711313792154
860.18,113.21378670727776
860.297,102.6681226142963
860.415,104.44367064252685
860.532,113.45644810798697
860.65,115.26835977258125
860.768,120.15386451076853
860.885,117.39348180306845
861.003,123.7447874070566
861.12,122.52206703701867
861.238,128.23960640724053
861.356,128.91818473850125
861.473,125.71710939010835
861.591,124.58270070838189
861.708,123.50716648552994
861.826,124.95717338821922
861.943,128.81930150302972
862.061,125.59571533212603
862.178,121.43186942096281
862.296,116.81607545785161
862.414,106.31196980642883
862.531,107.07106761820954
862.649,104.94271954254461
862.766,105.32779138029966
862.884,111.09901040420206
863.001,116.52996968784493
863.119,112.59382940438823
863.236,114.48366314690563
863.354,119.3007696166957
863.471,126.51441288302249
863.589,136.27957130086446
863.706,144.9659418399185
863.824,159.9466846733447
863.941,168.70058767993095
864.059,169.74453397656052
864.176,166.17635906106892
864.294,158.12679886419218
864.411,140.68589667597348
864.529,131.55235379511421
864.646,131.9945684900125
864.764,139.72769227581972
864.881,151.77769917850986
864.999,174.2259744794684
865.116,190.91753982371688
865.233,205.7121354709957
865.351,218.0677700793135
865.468,231.48833975256633
865.586,253.03531635222606
865.703,260.1632453328382
865.821,258.18554660782263
865.938,244.77235004730935
866.056,233.74270327034588
866.173,219.45764523797135
866.29,214.4591672921772
866.408,217.3412088269027
866.525,228.12108585946376
866.643,237.85161224267426
866.76,241.05140269514908
866.878,240.34902864545938
866.995,244.96959831871328
867.112,247.9096485114478
867.23,244.20900606348985
867.347,237.88758439475257
867.465,232.05360861346094
867.582,236.33218694472328
867.699,233.13284319806343
867.817,241.58285010075392
867.934,250.37484834543568
868.051,264.45602407929493
868.169,269.5363340122884
868.286,272.20452273316073
868.404,277.550633531955
868.521,291.5841902181952
868.638,306.3969676836563
868.756,328.00455034392246
868.873,358.68832348037915
868.99,393.0647373094764
869.108,426.4965623939852
869.225,459.43401518412156
869.342,488.2260134288034
869.46,515.5513450068188
869.577,539.6818713900288
869.694,558.6833934442345
869.812,576.0814522949768
869.929,583.8708531370607
870.046,594.3381760570669
870.164,594.0678366394105
870.281,581.1974972217541
870.398,564.5557292326693
870.516,548.5286798583031
870.633,530.1942711765774
870.75,512.5100789450682
870.867,492.9496962373686
870.985,485.24212738248275
871.102,469.81334640638494
871.219,445.1118381575599
871.337,421.5367368351418
871.454,396.27938443047276
871.571,377.624629428401
871.688,353.6278830843379
871.806,325.9480198571578
871.923,310.73742069924185
872.04,286.10344491794933
872.157,255.61405788124546
872.275,234.8640647839357
872.392,212.4855002580546
872.509,198.43507426031192
872.626,174.97079544871627
872.744,159.45023958084346
872.861,146.4751382584253
872.978,120.77622741219768
873.095,103.35437284302631
873.213,91.28143602277288
873.33,78.30546889948943
873.447,66.45937190607617
873.564,56.45223595162404
873.681,44.323433886365606
873.799,32.7930543617511
873.916,18.58440015937063
874.033,8.341649999095793
874.15,3.385213025328033
874.267,-4.966578007288072
874.385,-6.96744058263687
874.502,-4.795937904167567
874.619,-10.80645048634345
874.736,-11.189280862600421
874.853,-9.305815720846674
874.97,-9.533464720387528
875.088,-1.424905987638776
875.205,-9.869370572580847
875.322,-11.210020865193108
875.439,-10.377052015971994
875.556,-15.638002830887778
875.673,-18.107931014416405
875.791,-11.191002100936586
875.908,-8.931576498060425
876.025,-3.41754388381656
876.142,-8.543194928035861
876.259,-10.022536256063942
876.376,-12.271781777334908
876.493,-20.058514284206144
876.61,-19.93324024643836
876.728,-9.435026441699192
876.845,-6.587435487780915
876.962,-6.005384334578012
877.079,-3.560100302383044
877.196,-0.34210101482843536
877.313,1.4332492208151026
877.43,0.1943180735997605
877.547,3.321628916444464
877.664,7.063406734449687
877.781,-1.6516604863741136
877.898,-3.2887339461951206
878.016,-11.635880789228644
878.133,-17.077675119079423
878.25,-21.878818146997737
878.367,-26.75263244161989
878.484,-23.86462207627854
878.601,-22.801682322634157
878.718,-22.833416356756395
878.835,-14.754685101642815
878.952,-17.422085323684378
879.069,-14.759348660945383
879.186,-23.254931132171905
879.303,-30.411269121377018
879.42,-34.21265236942819
879.537,-36.15702328082182
879.654,-32.07220041771705
879.771,-32.863417029984845
879.888,-31.829252336738442
880.005,-32.48762334253202
880.122,-34.020912473974484
880.239,-36.4291197310659
880.356,-39.71224511380626
