wavelength_nm,intensity
792.446,201.75160108877674
792.565,161.98372230089797
792.684,128.93618983336552
792.803,102.60900368617935
792.922,83.00216385933933
793.041,66.4255404827159
793.16,49.557142214317565
793.279,60.87922013639545
793.398,73.8774885346639
793.518,95.46623312340847
793.637,122.62380888098417
793.756,149.33030238747767
793.875,159.56060541778075
793.994,158.84458810176352
794.113,141.48354914072456
794.232,122.93203398920943
794.351,108.92077857795405
794.47,103.49653615371162
794.589,103.44285650003188
794.708,105.96580022297559
794.827,105.58225043942579
794.946,102.08181753899294
795.066,109.755410612586
795.185,115.71991277708814
795.304,120.05670931388474
795.423,116.81515087232631
795.542,117.52943658661205
795.661,111.74588680306226
795.78,102.40909026626571
795.899,89.30605996323544
796.018,82.81947987665532
796.137,71.3069257641012
796.256,62.33203398920948
796.375,56.99437165154714
796.494,52.875896646281916
796.613,43.42947857093378
796.732,39.61372248742947
796.851,47.02197325110694
796.97,50.42430685270642
797.089,57.316448167288634
797.208,84.49293112739426
797.327,108.56917664512264
797.446,114.43950127013993
797.565,122.98428476961617
797.684,120.48058342060747
797.803,126.6522067469233
797.922,115.81430626371531
798.041,104.64220664630815
798.16,104.31253127132517
798.279,100.00623251971889
798.398,94.33196840014728
798.517,96.47761770048896
798.636,100.07002024758394
798.755,115.99402452628055
798.874,117.15352664047509
798.993,115.46540970705064
799.112,112.88811528444897
799.231,111.76363471466142
799.35,101.9378554435752
799.469,95.69476015517301
799.588,91.64733586244213
799.707,93.2180933878931
799.826,86.50400242849555
799.945,80.94921882840524
800.064,85.68967332355297
800.183,100.32190271047557
800.302,103.37144811471414
800.421,119.20021429817359
800.54,126.91815797081081
800.659,142.15558216292868
800.778,150.83369899573924
800.897,152.3594348761688
801.016,154.96482443625206
801.135,152.4732442993656
801.254,146.51846069927558
801.373,147.35501909052746
801.492,145.48162077182266
801.611,156.10778955268498
801.729,161.64391504350397
801.848,157.1661877204703
801.967,144.26075476973094
802.086,123.36311402678373
802.205,100.3044343227975
802.324,72.3289850451593
802.443,46.81790086948898
802.562,34.226781863101785
802.681,23.239316151669314
802.8,14.4769951377632
802.919,1.5728403369713568
803.038,-3.7927926167177137
803.157,-11.916153225795691
803.276,-18.116488521477226
803.394,-18.69853758487265
803.513,-14.232557393121743
803.632,-15.677938886982497
803.751,-10.134914054569583
803.87,-13.431823597864943
803.989,-7.8920628711390215
804.108,-9.423668919919592
804.227,-5.4064066860834465
804.346,-5.562857484398246
804.465,-4.769478212797303
804.583,-11.631736739514448
804.702,-3.6403814914333656
804.821,-0.14173870464906013
804.94,-6.5628470538657
805.059,-7.922630893898319
805.178,-13.193643990600536
805.297,-13.117684559556055
805.416,-12.57768577747175
805.535,-10.305605173279247
805.653,-2.018832865160266
805.772,5.344988146316626
805.891,6.750825027012884
806.01,22.363517704168764
806.129,46.78329591689271
806.248,89.82177996735598
806.367,122.76950792926328
806.485,151.54097332673138
806.604,168.68863877344552
806.723,178.37524541336586
806.842,174.05146244289676
806.961,165.95884830359665
807.08,157.6714289694915
807.198,155.3883386397153
807.317,148.752867357558
807.436,135.78752594553038
807.555,130.37283388415187
807.674,142.16160502623643
807.793,151.3070861250311
807.912,167.99369276495136
808.03,195.81449853907088
808.149,222.180758858645
808.268,253.31411874531864
808.387,266.26219724671085
808.506,277.6336523714797
808.624,279.81636290750384
808.743,267.4354370798919
808.862,248.47875367652233
808.981,227.49003564111823
809.1,205.21560331999981
809.219,191.48143073914127
809.337,174.746392357417
809.456,160.2269383912772
809.575,148.4581337757869
809.694,147.5109741819417
809.812,151.37160679588877
809.931,161.35258573018214
810.05,181.3387594696702
810.169,198.57861286283793
810.288,210.83924547678492
810.406,212.65225904311285
810.525,207.16916871333694
810.644,201.75707405455674
810.763,206.75104000183723
810.882,218.44890205301374
811.0,225.37360393103006
811.119,239.68445299519342
811.238,256.1875098515646
811.357,270.0221684395374
811.475,276.1096408803241
811.594,284.13477565877326
811.713,298.9330706103825
811.832,310.208421839048
811.95,313.37901116295154
812.069,315.7184316556864
812.188,314.93404262461195
812.307,314.38774883163285
812.425,316.18344638064514
812.544,318.5323906829043
812.663,324.76531766914604
812.782,337.55755201469503
812.9,353.28744869790626
813.019,371.86236702613905
813.138,391.9463762634628
813.257,412.2477015181025
813.375,432.4754336991492
813.494,438.2278412048713
813.613,435.25903658938137
813.731,425.51534019899964
813.85,418.9794360164103
813.969,417.54396473425385
814.088,412.2522163958202
814.206,412.25484035175873
814.325,409.90075435098726
814.444,401.8116034151508
814.562,390.11292866979045
814.681,385.0540807642569
814.8,391.79350125699193
814.918,388.2385494553546
815.037,389.0810002511197
815.156,397.7494250728587
815.274,395.43170270845053
815.393,396.2871405172025
815.512,396.37547875885485
815.631,393.8707434074338
815.749,399.5417656317703
815.868,396.7729610162801
815.987,405.97904817568167
816.105,404.5911959411437
816.224,400.3998805031426
816.343,398.7029373595137
816.461,381.47092928081986
816.58,357.730696093901
816.698,339.9930603095792
816.817,328.3177621875952
816.936,313.1809922041391
817.055,305.24855122501185
817.173,291.8563699861444
817.292,287.0347515178396
817.41,276.66941010581206
817.529,265.4651076548233
817.648,260.43050217353147
817.766,259.4963295926724
817.885,249.1552306048867
818.004,259.7708415738106
818.122,258.0886170448991
818.241,272.9033622129574
818.359,275.85576971867823
818.478,290.7137298417671
818.597,290.74279605546275
818.715,311.5506968453765
818.834,325.83904053611957
818.953,435.60393610246103
819.071,563.3343165751428
819.19,691.8123495097022
819.308,776.7268467734311
819.427,800.8599763718963
819.546,735.7945345936173
819.664,641.3667683435658
819.783,498.1784395005269
819.901,415.6347973703364
820.02,333.6609804307888
820.138,278.30015968839746
820.257,238.72632444224928
820.376,200.7661778354167
820.494,180.4605766831296
820.613,173.50043007629714
820.731,164.95933108851227
820.85,174.15762604012144
820.969,184.90310713891685
821.087,201.32477871390284
821.206,225.0287013711401
821.324,238.2243989201523
821.443,239.18546443453255
821.561,227.5768329792159
821.68,207.11019286589047
821.798,187.3898730988855
821.917,163.63059229291952
822.035,143.5085409241828
822.154,139.90597007492647
822.273,131.32331264558368
822.391,130.82117469676035
822.51,138.40301943191957
822.628,142.96408494629947
822.747,156.35805089357984
822.865,169.95980904865223
822.984,175.13039837255553
823.102,175.01094440641538
823.221,171.33651208529673
823.339,181.04043474253308
823.458,193.7105911660031
823.576,194.3928688015945
823.695,208.65523301727262
823.813,216.18166649702005
823.932,208.6717363404039
824.05,198.73756375954548
824.169,199.95923533453106
824.287,194.48480301341283
824.406,192.45106333298722
824.524,183.77057040580837
824.643,185.86756665611867
824.761,186.96109970296558
824.88,180.00095309613306
824.998,180.78279783129204
825.117,180.62438282619138
825.235,173.8928076479308
825.354,171.6815787900167
825.472,173.36299062474328
825.591,177.5933202083877
825.709,184.05135541973755
825.828,186.0756243973212
825.946,187.09296696797847
826.064,180.25316668149276
826.183,179.7553577369984
826.301,179.21512455007968
826.42,182.2818177700873
826.538,176.90954995113384
826.657,179.0662864611847
826.775,181.01955976777228
826.894,181.47499757652463
827.012,173.0204786753203
827.13,167.35643596459232
827.249,168.90191706338814
827.367,170.81449772928352
827.486,171.54266281076332
827.604,177.86563308704837
827.723,188.67604925077922
827.841,202.79122731927202
827.959,216.4657127470722
828.078,235.32028475495892
828.196,255.0493156373044
828.315,273.16103050233386
828.433,273.72902242364046
828.552,263.6537243016572
828.67,244.5905473917952
828.788,212.14901550357848
828.907,185.24601175389
829.025,159.25964034549622
829.143,138.41402054847774
829.262,114.6273659080951
829.38,90.63767335578589
829.499,75.06752935570007
829.617,64.57058165017878
829.735,63.52156481745997
829.854,86.98686304224084
829.972,116.76347115463926
830.091,165.07786565155422
830.209,212.7141822416384
830.327,274.62453080256944
830.446,328.39351205275864
830.564,375.2023201427746
830.682,409.75398537564774
830.801,428.83465493752533
830.919,411.880692464771
831.037,377.1379854032722
831.156,319.73467228116726
831.274,270.9616621893653
831.392,210.36614127505248
831.511,175.34204893216832
831.629,149.19241546374303
831.747,141.83152658406212
831.866,127.60025840777335
831.984,123.23582318246987
832.102,115.73134406583273
832.221,111.96009754987317
832.339,104.2296260150452
832.457,107.83411868262662
832.576,101.95397871428568
832.694,105.85495741121572
832.812,100.53903870791603
832.93,101.23341750663732
833.049,99.85485470098624
833.167,89.64014466970775
833.285,81.72998497849545
833.404,71.15579924984178
833.522,71.22994816407684
833.64,76.9067684204077
833.759,83.27261602696174
833.877,106.08872653740175
833.995,122.70745846058972
834.113,131.44647337765565
834.232,142.63443972893643
834.35,154.7410207988318
834.468,167.85712567825084
834.586,178.43123921567826
834.705,186.2295951773482
834.823,196.65305936412625
834.941,194.32500839938928
835.059,185.946740984436
835.178,169.667174868184
835.296,161.09237065669384
835.414,155.30631103394828
835.532,161.52631201726328
835.651,183.5359233901887
835.769,202.68839190597134
835.887,224.15428033517406
836.005,239.97341551762378
836.124,250.86268057020334
836.242,268.7043265751639
836.36,278.01090764505955
836.478,290.65601685348327
836.596,313.80242476320575
836.715,316.40597553007103
836.833,321.94099950002516
836.951,327.2740974283157
837.069,340.9215467811259
837.188,347.85980810547164
837.306,365.29580780827916
837.424,388.6693727293755
837.542,404.79002667828445
837.66,411.20755320478963
837.779,425.630177417116
837.897,427.5442649194088
838.015,429.9541248746791
838.133,415.6226107064792
838.251,420.33611818330087
838.369,426.4149936254904
838.487,425.23672621053703
838.606,428.31300425012904
838.724,433.1399316403706
838.842,429.0404521042051
838.96,420.85352668059363
839.078,399.6181164084972
839.196,398.46582301951776
839.315,397.40617032317886
839.433,394.9387254190477
839.551,397.37344501708094
839.669,401.3986408055905
839.787,401.35803572829906
839.905,401.0923224258993
840.023,399.7002021970926
840.142,406.5150083752125
840.26,392.85275827627606
840.378,381.23379822062986
840.496,371.03301998316533
840.614,359.68851880197803
840.732,347.8383899151629
840.85,336.99085843094525
840.968,338.42211482551556
841.087,346.4975270642418
841.205,354.69848042850913
841.323,370.30029959364225
841.441,389.3064477631044
841.559,394.2632452832159
841.677,402.852077435362
841.795,406.8080091546077
841.913,418.21848632839897
842.031,430.5579678311947
842.149,453.1061073426485
842.267,461.9113897112453
842.385,480.36515692832705
842.504,479.6111319376164
842.622,484.573990063789
842.74,488.14377459688785
842.858,493.30057211699966
842.976,494.77511855486034
843.094,495.6834312264874
843.212,488.0445577509283
843.33,493.7788444485292
843.448,492.4248194578182
843.566,496.9010974974101
843.684,505.50811146773776
843.802,514.451056173996
843.92,517.9879402741939
844.038,529.6780711276384
844.156,537.9881154009965
844.274,545.4505406267355
844.392,553.3822299217385
844.51,558.3173824202048
844.628,551.9624916286275
844.746,534.7374709669203
844.864,507.19989619265885
844.982,485.2484686045447
845.1,452.9732314926209
845.218,427.39236667506924
845.336,396.1093373553532
845.454,375.7128881222173
845.572,350.18916616180854
845.69,326.2186909546466
845.808,307.05687375614275
845.926,296.97730763988994
846.044,283.75401857991426
846.162,272.0857078749169
846.28,238.85722400974652
846.398,215.38631590215203
846.516,190.30242078157062
846.634,169.58822263068635
846.752,154.71385131962916
846.87,137.01092985788452
846.988,125.76975467264452
847.106,108.65332734753304
847.224,91.32390727969828
847.342,85.5995967245068
847.46,87.62785378391865
847.578,89.41580048230011
847.696,85.42848683996957
847.814,91.86248394679035
847.932,105.05892778764675
848.05,112.35092770868145
848.168,126.60652719428562
848.285,148.27228108013574
848.403,160.582543625357
848.521,173.2399923177644
848.639,180.99008170281255
848.757,201.54190268959212
848.875,209.3976197802679
848.993,213.40052301812983
849.111,215.28654313910863
849.229,221.81845070597467
849.347,222.9823929048754
849.465,223.6484996059408
849.582,220.4548660472658
849.7,225.74434937170764
849.818,224.8719279342447
849.936,224.14929004656534
850.054,227.96864350087736
850.172,239.09535626254853
850.29,250.39176599391664
850.408,247.38601122312025
850.525,245.6997369718044
850.643,252.23943674646273
850.761,258.4761062180908
850.879,264.3231653001086
850.997,275.55290836481055
851.115,287.78178562864673
851.233,290.43750271932277
851.35,293.00317651995556
851.468,304.5679845197223
851.586,325.7804115671081
851.704,353.9356957573508
851.822,397.1896812462948
851.94,448.773536865109
852.057,498.4379119644428
852.175,546.6598628213525
852.293,602.9354933319416
852.411,651.6007342321411
852.529,695.4737673401326
852.647,730.9502636515873
852.764,762.8839028201849
852.882,785.1240354952761
853.0,797.6923066985061
853.118,802.7281103692685
853.236,805.2539573300741
853.353,793.7425748536501
853.471,776.2130105590445
853.589,749.4479484289411
853.707,710.3478213637728
853.824,671.1048371557474
853.942,641.7051429910118
854.06,604.6855354063624
854.178,574.5585685143536
854.296,541.1692639600074
854.413,500.5132927389946
854.531,452.6746375352981
854.649,394.26455376017304
854.767,341.61724054781865
854.884,304.4980658636026
855.002,265.4827872832826
855.12,230.59737883283256
855.238,199.318030988443
855.355,165.36162686699717
855.473,130.39654681881086
855.591,99.41504948499207
855.708,70.78104366470053
855.826,45.69240094356463
855.944,23.15365413291447
856.062,1.7446839252938768
856.179,-18.274761603487413
856.297,-31.947962504199488
856.415,-41.284894679033584
856.532,-39.80247036142225
856.65,-47.640169243049804
856.768,-48.34527030761717
856.886,-48.36246036400641
857.003,-37.04505932300823
857.121,-33.648430967695376
857.239,-23.238806632564163
857.356,-11.469878056129248
857.474,2.306457850268423
857.592,6.5017962164361105
857.709,29.405749622071177
857.827,49.65292831250463
857.945,72.27639611544501
858.062,96.70975659601928
858.18,123.2157681123029
858.298,143.37475035949893
858.415,167.77376150116996
858.533,182.46454753461595
858.651,204.99169720442563
858.768,219.03053518592367
858.886,232.07803117607972
859.003,249.5973886380972
859.121,253.01891060227922
859.239,249.1893503153791
859.356,231.84550431419325
859.474,213.2947319060811
859.592,194.71019326420281
859.709,176.51786241453226
859.827,160.0017220410522
859.944,138.0093911913817
860.062,122.20580493045577
860.18,110.32949139680247
860.297,89.79776660773773
860.415,89.16734051997153
860.532,94.25985815514893
860.65,101.60345804140852
860.768,104.56870294931312
860.885,104.289792013062
861.003,113.9260325919625
861.12,118.01508702367681
861.238,118.83401158526124
861.356,112.65466774857728
861.473,106.56276979933926
861.591,100.79468137391065
861.708,90.93654965843874
861.826,92.87841794296668
861.943,101.05924726645557
862.061,104.8322843821523
862.178,104.26852496105245
862.296,94.74286077804796
862.414,98.21979399764086
862.531,100.87941119991763
862.649,93.00050026366634
862.766,100.55275815858377
862.884,105.09722384570901
863.001,100.58021767136245
863.119,98.7861552199596
863.236,98.12369450015858
863.354,110.7954329145567
863.471,107.83080769259121
863.589,110.43155043599376
863.706,118.95610270320577
863.824,126.66420475396744
863.941,133.68226351468573
864.059,147.17997595505764
864.176,148.21361913136013
864.294,152.25938351978385
864.411,145.38047258353228
864.529,141.49030623602522
864.646,136.23910092747914
864.764,134.44244107347848
864.881,143.10378987748646
864.999,149.61362352997918
865.116,161.14943120844572
865.233,183.07311767479115
865.351,203.09550543983767
865.468,213.8174603044513
865.586,224.04417707382675
865.703,229.86137003367824
865.821,229.8915500065166
865.938,223.22822348584833
866.056,222.40732120760418
866.173,221.42105096399217
866.29,218.00274608834548
866.408,217.76972259798032
866.525,217.3384307093467
866.643,223.5564894700637
866.76,227.20138805762048
866.878,224.51901391790454
866.995,218.25308999463894
867.112,209.28846477267223
867.23,204.43899106585715
867.347,200.00250437202916
867.465,200.1807362929198
867.582,209.03256128740335
867.699,221.94066333816392
867.817,225.64530218546116
867.934,228.3620622448795
868.051,234.752415377891
868.169,248.56268193081593
868.286,250.48723419802656
868.404,255.46546611891682
868.521,265.8159924121014
868.638,286.86175680052395
868.756,307.01834369976893
868.873,330.28315570723885
868.99,360.99904996579113
869.108,388.06039876979787
869.225,409.7555138075708
869.342,428.3519275466427
869.46,460.11630665368
869.577,494.9438892239207
869.694,517.1429003655901
869.812,532.852734018082
869.929,541.8673295753356
870.046,547.9191545698184
870.164,541.9268237201454
870.281,525.2297309657107
870.398,517.1690018476395
870.516,506.7931212144167
870.633,483.9142102781635
870.75,463.6422257488366
870.867,440.44383429310267
870.985,434.84717443910034
871.102,412.7899085244921
871.219,389.1560192332605
871.337,368.00351522341396
871.454,348.7947341572904
871.571,325.3608448660584
871.688,305.02305947093015
871.806,280.7813779719056
871.923,260.5622072953918
872.04,235.21056908641037
872.157,203.19313001162806
872.275,177.56789872905347
872.392,154.91063281444443
872.509,147.60141884788732
872.626,139.22120921033473
872.744,130.55268788447046
872.861,117.59325746769719
872.978,104.07971449681138
873.095,83.71162607138008
873.213,75.09332119573234
873.33,58.39622762974474
873.447,54.363781069438176
873.564,45.77207143419972
873.681,28.460590275970716
873.799,12.8504242419463
873.916,0.14864589065161726
874.033,-5.315652273525915
874.15,-5.65799082304344
874.267,-12.950985644949888
874.385,-6.738022561327764
874.502,0.436892375143203
874.619,-4.415425751998741
874.736,-2.245564899437478
874.853,-1.3107555336704249
874.97,-6.5334170755427925
875.088,-13.233311091575366
875.205,-15.320425294477975
875.322,-15.690754183001332
875.439,-12.93341622779685
875.556,-14.536632082155819
875.673,-11.239613527444883
875.791,-14.947401792062378
875.908,-18.390008516834133
876.025,-19.575134529285968
876.142,-16.69360844673617
876.259,-19.232721314079164
876.376,-12.036514062591719
876.493,-15.629632458581842
876.61,-13.02419571713957
876.728,-10.47015821250198
876.845,-9.107140223149253
876.962,-4.839127335584857
877.079,-3.913055129459271
877.196,-3.267465558763109
877.313,-1.7459749889280296
877.43,-9.102191483777945
877.547,-8.405710692378392
877.664,-7.549547265395503
877.781,-7.745599422738065
877.898,-7.570892191097031
878.016,-9.775918636394326
878.133,-16.097013287939383
878.25,-15.206938701405463
878.367,-18.81110209854009
878.484,-15.25177175776404
878.601,-10.788441047868869
878.718,-8.250761717977532
878.835,-10.293215289383319
878.952,-16.436628630089196
879.069,-21.35252858209161
879.186,-23.587916537426697
879.303,-26.391698903505272
879.42,-23.384762421806833
879.537,-22.274997951428507
879.654,-21.624970179934362
879.771,-25.709413475574287
879.888,-26.679471569219984
880.005,-27.000969898666792
880.122,-26.32830487264429
880.239,-24.661476491152513
880.356,-22.00048475419146
