wavelength_nm,intensity
792.446,0.25187554720471955
792.565,0.2163562495602186
792.684,0.1857640391734019
792.803,0.16009891604426943
792.922,0.13936088017282106
793.041,0.11362644340772678
793.16,0.10710094392860807
793.279,0.11236539192242917
793.398,0.12662367089492046
793.518,0.14575452905855865
793.637,0.17075163373441055
793.756,0.2002044045519476
793.875,0.2133172775316598
793.994,0.2095157081884233
794.113,0.19907667685101843
794.232,0.17584740136016314
794.351,0.16101899747551052
794.47,0.14825969033279762
794.589,0.14008789992515092
794.708,0.1423661897873153
794.827,0.14645208499113865
794.946,0.15617735529510116
795.066,0.16516455691432763
795.185,0.16769623562634145
795.304,0.17237803658460746
795.423,0.16577740436512634
795.542,0.1592143385158265
795.661,0.14881950290804652
795.78,0.14168852193306652
795.899,0.130167431815345
796.018,0.12214738007941052
796.137,0.11684094614244572
796.256,0.11425328617290695
796.375,0.10933577465664132
796.494,0.11439618569869409
796.613,0.10925462594509028
796.732,0.10864075529788689
796.851,0.10209267925477761
796.97,0.10518642890381269
797.089,0.1080943414264795
797.208,0.11938155496500562
797.327,0.1335744456281024
797.446,0.1491225086060245
797.565,0.15719621390164074
797.684,0.1665015068628046
797.803,0.16955089429556164
797.922,0.164824043100815
798.041,0.15143114592211626
798.16,0.14793956537038605
798.279,0.1390995649385473
798.398,0.1311699965369818
798.517,0.13363894672066487
798.636,0.13892537466793636
798.755,0.13847667010088138
798.874,0.1404388425848655
798.993,0.1416423217102886
799.112,0.14538189912068805
799.231,0.14511218725861394
799.35,0.14051055729780454
799.469,0.14460664692717842
799.588,0.1403865734321309
799.707,0.13459239536694267
799.826,0.13180720989371733
799.945,0.13093275313127578
800.064,0.1353684132832678
800.183,0.14519226947203082
800.302,0.15150624813308194
800.421,0.16804638203384464
800.54,0.1799142907177602
800.659,0.1970871601476531
800.778,0.203182369947061
800.897,0.20431660909607197
801.016,0.19833975534843418
801.135,0.18964339103787659
801.254,0.18584980633370948
801.373,0.18439122934472543
801.492,0.18181891996919358
801.611,0.19117945759238897
801.729,0.19297957906774882
801.848,0.18882653576263264
801.967,0.17771708461455493
802.086,0.16188237337408
802.205,0.14251210843831244
802.324,0.11972179515470867
802.443,0.09408506946848963
802.562,0.07977587063431084
802.681,0.06649285067658084
802.8,0.05777875814231511
802.919,0.04988448554814169
803.038,0.044277203616243606
803.157,0.03289647600736549
803.276,0.029015821406052977
803.394,0.028584770841530653
803.513,0.033461333026081175
803.632,0.032288105115634555
803.751,0.030814718209299968
803.87,0.03204218595515622
803.989,0.030913533438887583
804.108,0.02709400735401269
804.227,0.03233158973128069
804.346,0.03633437992170866
804.465,0.04686456547387029
804.583,0.04865010485850686
804.702,0.0520163247794135
804.821,0.05740036151531441
804.94,0.051273886784527836
805.059,0.04399197963246167
805.178,0.04298271221183059
805.297,0.039520083733477845
805.416,0.04881578341004052
805.535,0.0581815645548729
805.653,0.06320999604168791
805.772,0.0761706423390364
805.891,0.0855196655579068
806.01,0.10146495136986308
806.129,0.12643670552086406
806.248,0.15752823126769083
806.367,0.18424356786587004
806.485,0.20848399115107524
806.604,0.22045434954148696
806.723,0.2283329199641254
806.842,0.2319171386582098
806.961,0.22913864547729385
807.08,0.22108539196564447
807.198,0.2184409591645909
807.317,0.20847329396468894
807.436,0.19954717479294748
807.555,0.19503547241524116
807.674,0.1890166956573252
807.793,0.19941810564605258
807.912,0.21066144428413452
808.03,0.23970755941062583
808.149,0.27907264080904104
808.268,0.31215382605028713
808.387,0.3306327422234613
808.506,0.33156816352202534
808.624,0.32516635710735986
808.743,0.30761028513085964
808.862,0.2796159184124483
808.981,0.2649730816137239
809.1,0.25146386527987863
809.219,0.2453021889961754
809.337,0.2392289041717221
809.456,0.2301120067670997
809.575,0.23344430980232217
809.694,0.22744910410020636
809.812,0.22199308629951475
809.931,0.22617321074804222
810.05,0.2307334184713439
810.169,0.24385507561848538
810.288,0.2519354732064115
810.406,0.26397065200027364
810.525,0.27139916257623187
810.644,0.27143299099044815
810.763,0.273832764130585
810.882,0.28481019179542416
811.0,0.29566387141731365
811.119,0.30529406592408687
811.238,0.3217414517255033
811.357,0.33891070111079324
811.475,0.3422592092468786
811.594,0.34226431043683914
811.713,0.3486785290179062
811.832,0.35586396308092816
811.95,0.358986336400433
812.069,0.35361576367701675
812.188,0.36335497431686525
812.307,0.36778922421073645
812.425,0.36895151692137645
812.544,0.3750357407212447
812.663,0.3866878898583583
812.782,0.39517783454080924
812.9,0.4049288307085576
813.019,0.4181344597419868
813.138,0.44242364116985095
813.257,0.45913767454000454
813.375,0.47830383430884726
813.494,0.489489718498418
813.613,0.496658210865084
813.731,0.4869748715257699
813.85,0.4788184946449968
813.969,0.47413148253977944
814.088,0.47473838224813336
814.206,0.47099936854337077
814.325,0.4722294280394361
814.444,0.46972642157318384
814.562,0.46800346973481133
814.681,0.45927181177342125
814.8,0.45118762125103606
814.918,0.4492900962806452
815.037,0.4533317407763493
815.156,0.4556313369293379
815.274,0.4558412116665619
815.393,0.45888403267274325
815.512,0.4598481811955661
815.631,0.4662601899901536
815.749,0.46549923186661724
815.868,0.4667639113508895
815.987,0.4725026718641906
816.105,0.4690781844352592
816.224,0.4629540745217392
816.343,0.4478523387304114
816.461,0.4269462304483448
816.58,0.40922516108124696
816.698,0.38562090350557904
816.817,0.36693489404167046
816.936,0.3687085610121225
817.055,0.3619922283216285
817.173,0.35876441188952757
817.292,0.3517829048212837
817.41,0.35189260257135735
817.529,0.34030737366718466
817.648,0.32116835797462
817.766,0.3138273923054263
817.885,0.3136299297346062
818.004,0.30693274852694874
818.122,0.31018328946236595
818.241,0.31992250010221446
818.359,0.33687243742298056
818.478,0.34196222507418617
818.597,0.3263604276600069
818.715,0.341836980493121
818.834,0.35231287414510243
818.953,0.4508828546015463
819.071,0.5639475575573067
819.19,0.6949544016164779
819.308,0.8245792993559061
819.427,0.9047760655406125
819.546,0.9046057415133446
819.664,0.8274082550184723
819.783,0.6788132396188933
819.901,0.5714511445503093
820.02,0.42948074010104287
820.138,0.3285100320876727
820.257,0.2763752327890048
820.376,0.24830984490590585
820.494,0.2394793348295084
820.613,0.22812613350586586
820.731,0.2299292642960668
820.85,0.24272387304398424
820.969,0.25493288837437156
821.087,0.27992551849876546
821.206,0.30996824732829953
821.324,0.31784976413291377
821.443,0.3171072208967196
821.561,0.3097478403401819
821.68,0.29003869973545565
821.798,0.2620973678925954
821.917,0.23506311658664314
822.035,0.21439609489836917
822.154,0.23357150988672964
822.273,0.254769728340974
822.391,0.274780664481322
822.51,0.28235134894977676
822.628,0.2738083800190143
822.747,0.25857870681802886
822.865,0.23510590306852952
822.984,0.21393213394914062
823.102,0.22370604131261335
823.221,0.2365022245293653
823.339,0.2387200585825462
823.458,0.24567788463799914
823.576,0.24875532563238464
823.695,0.257595889769859
823.813,0.2601577139186204
823.932,0.2602475235903616
824.05,0.2576148763172079
824.169,0.25522825193896626
824.287,0.24747773917524735
824.406,0.24460717155761286
824.524,0.23907086484810225
824.643,0.233419649241567
824.761,0.22907957361390419
824.88,0.23429608792213574
824.998,0.24057624612334028
825.117,0.24823089151587976
825.235,0.25461417308620926
825.354,0.2544292326387824
825.472,0.24876917788632236
825.591,0.24210367028489546
825.709,0.23583150467713043
825.828,0.23457334459531212
825.946,0.23081517940771118
826.064,0.23117752941213987
826.183,0.2237069229360461
826.301,0.22497675858877297
826.42,0.22987801002568037
826.538,0.2395465074981285
826.657,0.24309315982203222
826.775,0.24395639476220987
826.894,0.2410379484374823
827.012,0.23670523876475744
827.13,0.22404826341717968
827.249,0.22141487954853256
827.367,0.21638019437026493
827.486,0.2219325962236457
827.604,0.22643313971195356
827.723,0.23666292295063793
827.841,0.25529799736848763
827.959,0.2725033399329715
828.078,0.2941164699320468
828.196,0.31249447252257845
828.315,0.31810432882447226
828.433,0.3246062022692956
828.552,0.311401936469863
828.67,0.28772622913130064
828.788,0.2592884319256538
828.907,0.22961536407699076
829.025,0.2013980620941534
829.143,0.175580858847397
829.262,0.15201219987490763
829.38,0.14191970840696344
829.499,0.13784267248973361
829.617,0.13208932791112282
829.735,0.1395953518078112
829.854,0.1585556993801213
829.972,0.18280677414193147
830.091,0.211626245743153
830.209,0.25063229607825277
830.327,0.3017708918561896
830.446,0.36228361985857593
830.564,0.4036386453030414
830.682,0.4401417162301849
830.801,0.4563891476747363
830.919,0.44898228802853957
831.037,0.40956225162853566
831.156,0.3580406878617364
831.274,0.30329725540528096
831.392,0.25526347130138116
831.511,0.2198600901287882
831.629,0.20641167424286516
831.747,0.20669118857393426
831.866,0.2091068298368741
831.984,0.21206313219222533
832.102,0.2135307750547109
832.221,0.20130785143638535
832.339,0.178992648986112
832.457,0.16676353614012723
832.576,0.15530128052537406
832.694,0.15189403410421431
832.812,0.1503835004339923
832.93,0.16000485803377262
833.049,0.1653226436049816
833.167,0.1624838404906505
833.285,0.14934240785410552
833.404,0.15102632981825542
833.522,0.14725839397756973
833.64,0.15128050782819008
833.759,0.1566354109400887
833.877,0.17498348760612054
833.995,0.19144519184252845
834.113,0.20391047029652093
834.232,0.21043754215895144
834.35,0.22477178965962322
834.468,0.22815580855022866
834.586,0.2398243169590243
834.705,0.24134253946396445
834.823,0.2457408503494614
834.941,0.24544999432175474
835.059,0.23919492458116565
835.178,0.236955773472494
835.296,0.23173341061414052
835.414,0.2263062742085249
835.532,0.234714610961989
835.651,0.23805811710043812
835.769,0.2388367977296546
835.887,0.2554338665871219
836.005,0.2768880461303674
836.124,0.3011317128084387
836.242,0.31858323243865416
836.36,0.32691349006978077
836.478,0.338013346757402
836.596,0.3484068083665183
836.715,0.3479509549482115
836.833,0.3591716132968072
836.951,0.37768677681999513
837.069,0.39446136519145536
837.188,0.4147605630005026
837.306,0.42453307460838907
837.424,0.43443596361866904
837.542,0.4464072127753952
837.66,0.4464596102477754
837.779,0.4541939621244597
837.897,0.46074313185170246
838.015,0.46401076865429525
838.133,0.46457804637680566
838.251,0.46504072753920356
838.369,0.466017552356238
838.487,0.46726102474200937
838.606,0.46599638947156685
838.724,0.47413660546530634
838.842,0.4734914470051065
838.96,0.4689887379441453
839.078,0.45702210674502974
839.196,0.45451336168564604
839.315,0.4550570683523565
839.433,0.44860459101944317
839.551,0.4473303800075824
839.669,0.4516911245228984
839.787,0.45207425337197205
839.905,0.4472017733731494
840.023,0.43778376258240426
840.142,0.43393588691538576
840.26,0.43147575715858955
840.378,0.4196144591150802
840.496,0.4156030592484494
840.614,0.41025400196517114
840.732,0.40456021799081865
840.85,0.3991573892364968
840.968,0.39573968533782733
841.087,0.40022417789609266
841.205,0.40775670260748964
841.323,0.41225077090717355
841.441,0.42160931584757305
841.559,0.4289643210449765
841.677,0.43402777766132805
841.795,0.44439324864168206
841.913,0.4585418740779287
842.031,0.47674766749374253
842.149,0.49482087372068173
842.267,0.5099447515906518
842.385,0.5225826196692203
842.504,0.5310491474666909
842.622,0.5360949257911932
842.74,0.539296268999349
842.858,0.5403253920964403
842.976,0.5416881929521995
843.094,0.5315630504874559
843.212,0.5306961767836383
843.33,0.5338651097900692
843.448,0.5401616272629565
843.566,0.5488638656184266
843.684,0.5499953754891487
843.802,0.5568973744578971
843.92,0.5575117942920075
844.038,0.5590285436059599
844.156,0.5722836787082899
844.274,0.5886781838049764
844.392,0.5986230587584005
844.51,0.6006834155467398
844.628,0.5911136660842825
844.746,0.5755855956728932
844.864,0.546988111415923
844.982,0.5226820325055322
845.1,0.4937678121862502
845.218,0.46966356044114654
845.336,0.44703028989705884
845.454,0.4211154864283212
845.572,0.39506220300675876
845.69,0.36386527325235013
845.808,0.3366813157478837
845.926,0.31606999983413586
846.044,0.30292186946304844
846.162,0.29482678417907615
846.28,0.2834332242740977
846.398,0.27175312872205115
846.516,0.25886722634673814
846.634,0.23600266481761317
846.752,0.21934760330078876
846.87,0.2063077524672824
846.988,0.19898682904724
847.106,0.18111055880165028
847.224,0.16531954599894988
847.342,0.15541241111286647
847.46,0.1466388846920258
847.578,0.13914021062508947
847.696,0.13901647301119613
847.814,0.1435269194995652
847.932,0.16244902082172447
848.05,0.1667488138096403
848.168,0.1784610212803921
848.285,0.18967999702421318
848.403,0.19540323378917612
848.521,0.2008863404231771
848.639,0.2077638223268441
848.757,0.2220057859770094
848.875,0.24558483410593168
848.993,0.26027906738925854
849.111,0.27346843607885707
849.229,0.27992090238263106
849.347,0.27655528735023016
849.465,0.2710285011391709
849.582,0.2685254394299496
849.7,0.26736224492385685
849.818,0.27332782160626284
849.936,0.2822412534546507
850.054,0.2881007603859569
850.172,0.29924313019842796
850.29,0.3086817546338585
850.408,0.315885548341256
850.525,0.32110127081102624
850.643,0.32670959867896454
850.761,0.33034679700563163
850.879,0.3343066241585605
850.997,0.3342262250282785
851.115,0.3409247142269645
851.233,0.33847689717977436
851.35,0.34081916062843126
851.468,0.344398167911092
851.586,0.36268846039489955
851.704,0.39020056016269244
851.822,0.43348758902460494
851.94,0.4875672150609218
852.057,0.5469540116296971
852.175,0.5982699313734692
852.293,0.6476714394289886
852.411,0.6868600509636837
852.529,0.7245150706803942
852.647,0.7547555201570315
852.764,0.7815487027229252
852.882,0.8116105277923283
853.0,0.833449737365016
853.118,0.8436588406869073
853.236,0.8416360392396096
853.353,0.8260120020002445
853.471,0.8021255731075014
853.589,0.7690633741491322
853.707,0.7317384970684397
853.824,0.7022856160294383
853.942,0.6789008086679378
854.06,0.6518087161864002
854.178,0.6204753068518585
854.296,0.58669419069159
854.413,0.5526405341986345
854.531,0.5060861155812716
854.649,0.4511197764253
854.767,0.406827442569239
854.884,0.3630750332100957
855.002,0.3152956562866289
855.12,0.2729987596231329
855.238,0.2313544865670982
855.355,0.2005322745052177
855.473,0.16165033992013433
855.591,0.12677353537991665
855.708,0.10309627392486173
855.826,0.08516642136663624
855.944,0.06816861842735727
856.062,0.05384124717522182
856.179,0.0433320756049414
856.297,0.041489514724797255
856.415,0.030993837613043182
856.532,0.023032983232786047
856.65,0.015495880030600043
856.768,0.016899515020717053
856.886,0.015243907016209235
857.003,0.013428959665587005
857.121,0.024381587177160862
857.239,0.03197091927332433
857.356,0.0392430281922163
857.474,0.05055875519639322
857.592,0.056765703598710776
857.709,0.07022287055238388
857.827,0.08352779829484938
857.945,0.09881770184245423
858.062,0.12589972249967232
858.18,0.14704823009502987
858.298,0.1767461955350818
858.415,0.20532032112781234
858.533,0.22845746796061184
858.651,0.2522332430864914
858.768,0.2649092607170736
858.886,0.2781443543274111
859.003,0.28326216559663925
859.121,0.27898838432057294
859.239,0.2724657770020922
859.356,0.2554142736959689
859.474,0.2431572704586551
859.592,0.23253845559943806
859.709,0.21187100501450284
859.827,0.19584042306271493
859.944,0.1733963041468581
860.062,0.15452320018469437
860.18,0.13424982818891457
860.297,0.12268227833374913
860.415,0.12012181817614151
860.532,0.12856535809964398
860.65,0.12970113412966688
860.768,0.13729095987591494
860.885,0.14751558770330175
861.003,0.15376775603290238
861.12,0.15424354250052663
861.238,0.15998009398450322
861.356,0.1552510966932999
861.473,0.1549829217122379
861.591,0.1454748928575938
861.708,0.13962553382039894
861.826,0.14262047687664323
861.943,0.14129455076655828
862.061,0.13958559499972406
862.178,0.13965625394578643
862.296,0.12957957336996828
862.414,0.13706259276962263
862.531,0.1378109195699336
862.649,0.13277476195783688
862.766,0.1437389316609468
862.884,0.14829545716393783
863.001,0.1475352363930516
863.119,0.14396195743153967
863.236,0.1421808153063181
863.354,0.15160329064101252
863.471,0.150428366607146
863.589,0.15334965011401525
863.706,0.16980145624555212
863.824,0.18794448563073568
863.941,0.19728004269716742
864.059,0.20111249482980342
864.176,0.20413763830129095
864.294,0.19784926834982133
864.411,0.18788528688454625
864.529,0.1809649179994403
864.646,0.175665795796075
864.764,0.1845085704771887
864.881,0.18635663434966598
864.999,0.18927791785653492
865.116,0.197082829486957
865.233,0.2127206975979015
865.351,0.2326190340446878
865.468,0.2520820425546687
865.586,0.2659844916823415
865.703,0.27500552247294235
865.821,0.2759070611359527
865.938,0.2692960623582211
866.056,0.2550126849176044
866.173,0.2513650098112235
866.29,0.24952420345100784
866.408,0.25416175445831096
866.525,0.2629220304441248
866.643,0.2715504558365577
866.76,0.2761887434393545
866.878,0.276096614781298
866.995,0.26649356510795974
867.112,0.265045364145912
867.23,0.2563284388515532
867.347,0.2543800895492502
867.465,0.2540426745917753
867.582,0.26043921563814987
867.699,0.2596686825303506
867.817,0.2600988000773617
867.934,0.26121763441102763
868.051,0.2688000942023375
868.169,0.27784248626225716
868.286,0.2883426008043052
868.404,0.29073058917370026
868.521,0.30935019584333895
868.638,0.32485915974287743
868.756,0.3390054219789812
868.873,0.36325998417579686
868.99,0.3899165842777267
869.108,0.42425366559297306
869.225,0.4570969312468974
869.342,0.48632056664454104
869.46,0.5222280695524595
869.577,0.5540820874582795
869.694,0.5746691406917213
869.812,0.5862579433735304
869.929,0.5868250676823796
870.046,0.588463938434633
870.164,0.5867512996903302
870.281,0.5724045750372518
870.398,0.5588194901247094
870.516,0.5454435983323918
870.633,0.5269240602072276
870.75,0.5055656830491564
870.867,0.478447865725465
870.985,0.4605212869727683
871.102,0.4451521677743666
871.219,0.42007913954132103
871.337,0.4062760223626289
871.454,0.39075737427899626
871.571,0.37750081095666554
871.688,0.3557697164787574
871.806,0.33040131345271867
871.923,0.30929116897604053
872.04,0.29294679734391565
872.157,0.2715132874454818
872.275,0.25748919161866496
872.392,0.24322864863835475
872.509,0.22743672362654138
872.626,0.2050183855529658
872.744,0.19423236351666784
872.861,0.18204975642422264
872.978,0.16793726913815618
873.095,0.15255489122086727
873.213,0.13487875493604534
873.33,0.11364412582092409
873.447,0.09637164386667653
873.564,0.08216799367046068
873.681,0.07771907303458628
873.799,0.07035217167563279
873.916,0.05945448095527404
874.033,0.056994016632654694
874.15,0.04945831100934336
874.267,0.04237639365395575
874.385,0.0396703826575455
874.502,0.04141464695452156
874.619,0.04340717752299833
874.736,0.04174301332078374
874.853,0.041873533848675044
874.97,0.03967313073045777
875.088,0.03915782963389844
875.205,0.03842825811354776
875.322,0.03858567779845948
875.439,0.042243689947089796
875.556,0.04546286595854801
875.673,0.03890398611950786
875.791,0.03577749606230485
875.908,0.027848920039051216
876.025,0.030011915982783487
876.142,0.028789652560631623
876.259,0.03324178634231299
876.376,0.03624676544763465
876.493,0.03656036289927944
876.61,0.030327404720867934
876.728,0.03747590920440034
876.845,0.042622055747358216
876.962,0.050159533797810546
877.079,0.049502411989991654
877.196,0.051586449832891165
877.313,0.04430017172148317
877.43,0.038755655164675405
877.547,0.031153254717176254
877.664,0.03936751755879066
877.781,0.03700180467031413
877.898,0.037196141765076365
878.016,0.03822072727015916
878.133,0.0396160410098869
878.25,0.03415463743535771
