wavelength_nm,intensity
792.446,213.68349692603056
792.565,169.17256513905474
792.684,130.77310182640386
792.803,98.48510698807787
792.922,72.30858062407677
793.041,41.14191159920907
793.16,25.430051962523095
793.279,30.911674825108484
793.398,46.92390297993008
793.518,76.36854266806168
793.637,112.33546020206273
793.756,151.06257749789347
793.875,175.5828316675913
793.994,178.77925007688071
794.113,168.6778329883347
794.232,151.27511719849
794.351,133.49231482855868
794.47,119.28180683092172
794.589,113.36653692852292
794.708,116.11187308673007
794.827,115.20612699385498
794.946,120.4311168317156
795.066,133.23705905052844
795.185,147.01442984076957
795.304,171.23941967862976
795.423,172.1882190402995
795.542,169.68939935435017
795.661,151.67975715757834
795.78,130.2337513244429
795.899,107.88038618394805
796.018,93.73827645470851
796.137,80.97019269949479
796.256,77.56228210445427
796.375,68.97515073019287
796.494,70.5404003083123
796.613,59.47725289968852
796.732,56.063339845863126
796.851,52.96821229060917
796.97,51.700094426683904
797.089,57.11151120145671
797.208,72.87547879309938
797.327,94.9565002815818
797.446,114.21143144953797
797.565,130.52541151819673
797.684,145.1112530587168
797.803,156.5525058546483
797.922,155.73488419170548
798.041,151.05319326469345
798.16,147.39141575759487
798.279,135.66037418123213
798.398,120.70509018062685
798.517,118.82339925361461
798.636,117.47590746080142
798.755,128.60720354677605
798.874,135.60256889681983
798.993,133.82477407370334
799.112,135.3197065233139
799.231,135.03888139716676
799.35,132.83511254807576
799.469,137.70926577690682
799.588,139.89164411396294
799.707,140.66796184495848
799.826,140.36895490062946
799.945,137.5123721987248
800.064,139.94410118513187
800.183,152.49963969534838
800.302,162.54781889820555
800.421,182.42197212703655
800.54,202.372315832058
800.659,216.40923962365952
800.778,227.95092532002303
800.897,230.46490538868085
801.016,227.88364736210056
801.135,222.88074431387514
801.254,217.87004905785756
801.373,221.40567414816024
801.492,223.59757629474004
801.611,223.5167511685926
801.729,221.1831121896314
801.848,220.23475459595153
801.967,198.01713293300747
802.086,169.99777966833176
802.205,142.28751731274681
802.324,106.54819267496885
802.443,67.3170441831743
802.562,38.158400571588416
802.681,19.003998236971302
802.8,14.11031444292055
802.919,1.6343228324927555
803.038,-0.5062012274697429
803.157,-8.670792972711633
803.276,-16.10862212158923
803.394,-23.755003873186347
803.513,-21.526337433385027
803.632,-28.4048776059377
803.751,-23.94871688687526
803.87,-17.5829429065176
803.989,-13.291934758227834
804.108,-17.193711513509015
804.227,-11.911026797277062
804.346,-15.392103486149082
804.465,-10.701810420756765
804.583,-15.324883098595462
804.702,-9.012075521624013
804.821,-6.612689157203134
804.94,-5.705403178024059
805.059,-0.08154781158222413
805.178,7.320651080582898
805.297,4.121373713890522
805.416,10.075685578042133
805.535,19.17384054503649
805.653,28.328829361559812
805.772,32.547269008430405
805.891,49.097691476735406
806.01,69.52211745869485
806.129,107.07344058848008
806.248,150.74192168818692
806.367,203.46494824243922
806.485,254.1464163551331
806.604,291.92831736825974
806.723,308.99160366277164
806.842,302.2280501304436
806.961,276.1519424855614
807.08,258.39618116102537
807.198,241.56942416549367
807.317,219.03357626087117
807.436,206.56266342118388
807.555,205.46837395812008
807.674,207.0390195599914
807.793,207.48498983718736
807.912,224.09632807975143
808.03,261.775198789848
808.149,297.51727296314783
808.268,326.5121609892616
808.387,352.92349923182564
808.506,367.20843054798274
808.624,362.71327528405345
808.743,343.5332715352757
808.862,323.15067038390066
808.981,307.33257139702795
809.1,287.91793561361834
809.219,278.61498814189713
809.337,269.46528742342264
809.456,271.29827068763217
809.575,270.34424096482894
809.694,280.1477869996016
809.812,285.6188655019068
809.931,305.176524090792
810.05,329.12465887015327
810.169,356.62344300016383
810.288,370.36984617779336
810.406,387.64352208269565
810.525,383.77953564993544
810.644,387.18481328643946
810.763,378.8013463341989
810.882,379.5572733213521
811.0,379.05259424789926
811.119,401.14531777184914
811.238,420.25708891484646
811.357,448.0225397115232
811.475,458.98279570300485
811.594,472.69110364253856
811.713,478.5872903699509
811.832,473.14927796316385
811.95,458.11732616243785
812.069,446.9442488205864
812.188,432.7270156345792
812.307,414.223202361992
812.425,399.8804280504438
812.544,389.59133339257534
812.663,386.1706370031049
812.782,387.6746159383095
812.9,394.80889790381707
813.019,410.9431798693244
813.138,432.8904488478187
813.257,443.5762459648408
813.375,468.1339045537243
813.494,485.2837709348156
813.613,505.85095333322283
813.731,517.0960578095521
813.85,527.9602099049292
813.969,545.4892970652415
814.088,558.9473885545581
814.206,564.0427094811041
814.325,577.1821862518057
814.444,589.7225288233735
814.562,606.4031311352007
814.681,608.2491014123962
814.8,613.1071929017128
814.918,612.1202627460079
815.037,607.3809516379217
815.156,599.2312509194458
815.274,597.5741908936104
815.393,600.5422390928834
815.512,606.2366942185633
815.631,613.1718419849359
815.749,623.7260373703562
815.868,626.5711418466854
815.987,628.1807484875167
816.105,630.9955499335426
816.224,625.0718232410406
816.343,613.2294818299239
816.461,596.4305641540859
816.58,579.5283652363164
816.698,556.6068046340695
816.817,539.8568964819605
816.936,519.4431429444911
817.055,499.42615008226767
817.173,477.0959611853336
817.292,450.17811737922995
817.41,437.592964984303
817.529,419.94960763525415
817.648,404.2814752253823
817.766,390.62874420387584
817.885,380.5777447841009
818.004,374.27133410891474
818.122,387.2203346891398
818.241,392.4844867845161
818.359,417.56049590509787
818.478,427.5981408050751
818.597,410.2676341023654
818.715,419.8388059466908
818.834,433.8612495958176
818.953,571.1436024236566
819.071,732.0558129117371
819.19,926.0865000922862
819.308,1088.9093748717562
819.427,1174.1772603259033
819.546,1119.196379677923
819.664,994.2743707671112
819.783,792.5953457066896
819.901,661.8067430280219
820.02,502.3895150494209
820.138,410.53326650466965
820.257,345.9912829698575
820.376,310.08944095151253
820.494,269.8310822243794
820.613,250.7805157050384
820.731,245.59401844976676
820.85,255.5841445711187
820.969,272.2223226405228
821.087,304.4310634804898
821.206,347.4415359221882
821.324,381.3749520868304
821.443,389.8391041822086
821.561,384.9101826845131
821.68,349.29208369764
821.798,303.3622963990786
821.917,271.0229852909933
822.035,246.70531920455284
822.154,239.14003407049324
822.273,245.8223679840526
822.391,256.6484248413349
822.51,268.0043518284874
822.628,259.85465111001236
822.747,264.53179021837707
822.865,268.095509413322
822.984,268.3665879156265
823.102,263.27229845256295
823.221,265.33818214967255
823.339,273.9573126000288
823.458,285.0976551715969
823.576,286.8146211197884
823.695,307.73072126711384
823.813,312.7282066958244
823.932,314.34733714617965
824.05,305.8651688952358
824.169,308.39858505987615
824.287,310.5112220037372
824.406,313.6394433631825
824.524,311.8429893979525
824.643,310.89155707774427
824.761,304.03796025537156
824.88,299.3713764200119
824.998,300.46409994395947
825.117,303.9559576670414
825.235,307.8573391996471
825.354,309.2236557971877
825.472,309.36313256788856
825.591,300.4913539273341
825.709,292.9156791828835
825.828,295.135675434104
825.946,289.3071868368396
826.064,283.1748021356791
826.183,278.23375942586034
826.301,283.6485608718857
826.42,288.40708526163405
826.538,294.8902849760575
826.657,296.1847401017362
826.775,305.2428315910514
826.894,297.224732604176
827.012,285.92178513245204
827.13,276.5106125525031
827.249,281.08991616303035
827.367,269.0822067865447
827.486,266.44679178235333
827.604,269.98280534959065
827.723,281.9993383973476
827.841,297.2106766399097
827.959,322.0748287352856
828.078,356.52599381767476
828.196,385.9754272983321
828.315,390.3192330733617
828.433,391.5859825713353
828.552,378.8510004675775
828.67,351.06839931620084
828.788,301.57402981069686
828.907,254.12969300321174
829.025,204.80964645350613
829.143,159.56510229242144
829.262,115.06927660776418
829.38,85.37162915555766
829.499,74.19478378721638
829.617,73.1596545166481
829.735,72.75943111692717
829.854,100.6381330363967
829.972,152.2752911802587
830.091,214.7171793129654
830.209,284.77183125723656
830.327,376.34812144387917
830.446,467.12345573976074
830.564,533.0383443266026
830.682,572.4086441688555
830.801,582.6213682535324
830.919,550.9457806498974
831.037,494.0398900159595
831.156,426.05174829977045
831.274,369.10256762254244
831.392,309.7092311011586
831.511,269.53234479622495
831.629,246.3961511319839
831.747,236.84437305215846
831.866,223.632854712593
831.984,226.79882555051677
832.102,233.16046738411146
832.221,225.54359219869508
832.339,205.21600252956023
832.457,195.47127408991796
832.576,173.79897084455123
832.694,169.932095944661
832.812,157.63773556508852
832.93,156.8275889217676
833.049,157.0460151283939
833.167,149.71249246551253
833.285,144.74275316323804
833.404,158.14039704439
833.522,164.89488906298465
833.64,180.55840964171006
833.759,191.04862018729602
833.877,212.05469699904424
833.995,235.7848099093842
834.113,260.758212863014
834.232,290.99741668244457
834.35,324.36302742828207
834.468,340.76500181048317
834.586,345.1756342013422
834.705,351.52392892986353
834.823,351.4670288531902
834.941,345.1694361358244
835.059,334.61902956564484
835.178,339.9378870647295
835.296,345.4792553863253
835.414,340.19291808021546
835.532,354.5801738476987
835.651,381.4834469311994
835.769,402.92611395409415
835.887,412.48739569560337
836.005,433.26512765356284
836.124,460.84632281498546
836.242,485.162582911473
836.36,496.3281936573112
836.478,534.1024624118077
836.596,565.4100644996375
836.715,578.0579263277273
836.833,585.6174764675054
836.951,602.4428274730847
837.069,608.3919880024732
837.188,619.8485078392214
837.306,631.7907419616835
837.424,656.577997729167
837.542,676.398153929551
837.66,681.9654962771208
837.779,695.4107607026127
837.897,707.7382762103557
838.015,703.6328912851984
838.133,700.1872466197815
838.251,708.0030738158366
838.369,722.2994204924112
838.487,718.5446849179035
838.606,719.0029363563826
838.724,719.8083739420476
838.842,720.878746592648
838.96,699.914487208616
839.078,685.6359421102986
839.196,684.962591817176
839.315,686.4502804850922
839.433,669.7942462092856
839.551,655.4204630157299
839.669,650.1990607745552
839.787,644.1395632952851
839.905,627.8402389761882
840.023,625.5980575142339
840.142,632.0121531085567
840.26,620.4435647201956
840.378,609.5503010071593
840.496,597.4518424889282
840.614,596.6789250962379
840.732,589.3553583528983
840.85,580.4101465879136
840.968,588.472727030721
841.087,596.2755672137882
841.205,588.7312212496694
841.323,595.0483471470225
841.441,615.611360490263
841.559,628.3172309763606
841.677,647.3036209429779
841.795,660.1281061476905
841.913,680.2296476294594
842.031,704.891362271401
842.149,718.1911721514382
842.267,729.6381681786612
842.385,749.5024802232003
842.504,753.6126797136269
842.622,757.6354333166073
842.74,751.9759358373369
842.858,757.0688193104472
842.976,764.3937374155923
843.094,757.2190884211705
843.212,757.756127738437
843.33,762.2568034193403
843.448,754.1211154638801
843.566,750.4468993698915
843.684,753.8064495096695
843.802,766.5685970520449
843.92,778.9298787935545
844.038,793.8954895393929
844.156,805.9520093761405
844.274,813.8725984769577
844.392,812.5048758894632
844.51,809.2237333885491
844.628,798.2179155629599
844.746,782.5722708975442
844.864,753.3707820762845
844.982,727.7156136013452
845.1,693.5305749965356
845.218,668.3611208073105
845.336,634.3206709470896
845.454,610.8144202210678
845.572,577.795615382492
845.69,542.0720486391541
845.808,503.8861442334786
845.926,485.15305368061684
846.044,463.1177986255905
846.162,445.07042235844324
846.28,402.3433924116423
846.398,371.4172282657071
846.516,337.7888996176074
846.634,307.1943372032739
846.752,274.871636260802
846.87,249.60694397633887
846.988,232.27471922434364
847.106,210.98058971044384
847.224,187.95312686321085
847.342,179.90228739260118
847.46,181.55361242415586
847.578,184.3391365899096
847.696,177.53331876432134
847.814,188.77165678288895
847.932,200.8316398231018
848.05,216.77473974643166
848.168,234.15680070872264
848.285,253.39773612988802
848.403,264.66031657269843
848.521,272.16965026226205
848.639,279.7317978046396
848.757,302.9865860396579
848.875,312.36258639588834
848.993,320.61564302917515
849.111,308.14315853692085
849.229,294.8689424429349
849.347,279.21031076453323
849.465,255.27375700820937
849.582,239.47399978868202
849.7,240.86904776395974
849.818,245.17232084746252
849.936,244.37775843312974
850.054,243.09834753394858
850.172,244.43452105035178
850.29,253.47978547584583
850.408,251.82721440350437
850.525,261.6837342402539
850.643,283.0770506138
850.761,306.71192542890446
850.879,317.7078392050479
850.997,336.0699867474252
851.115,346.6407922984607
851.233,355.90337274127126
851.35,363.99452461265344
851.468,383.2744210727806
851.586,415.89804047663097
851.704,468.3935213523429
851.822,522.8959286349811
851.94,596.2459549652383
852.057,674.9925180920322
852.175,751.2637565435011
852.293,826.6596703196452
852.411,882.6495234897288
852.529,944.9320173524533
852.647,991.3175415182079
852.764,1024.8701652510622
852.882,1053.5829621440898
853.0,1086.210910552269
853.118,1094.1263048478945
853.236,1090.3455952474155
853.353,1062.804712486764
853.471,1041.064695526978
853.589,1003.9411287836423
853.707,957.7171291398735
853.824,915.4965926995678
853.942,886.9479177311237
854.06,846.6191561825926
854.178,795.7510006946677
854.296,744.4317629556606
854.413,693.6068975110256
854.531,636.3889584733167
854.649,566.8160410806297
854.767,512.4448552896745
854.884,459.3645785896282
855.002,398.2488040540843
855.12,327.3841117696229
855.238,278.8129259786679
855.355,230.3231254690984
855.473,185.059148304717
855.591,142.61884275038003
855.708,113.64124510808334
855.826,82.29905986191261
855.944,53.51905798621338
856.062,21.095977178986004
856.179,11.905311358661788
856.297,-1.1835751039217106
856.415,-5.7107304230653115
856.532,-17.60586783609558
856.65,-25.862965764528315
856.768,-20.06639404458912
856.886,-21.23150694159196
857.003,-27.38959920317123
857.121,-21.06850390406335
857.239,-17.834559706243255
857.356,-5.873518449158026
857.474,0.6163444004681171
857.592,16.820203740752454
857.709,50.47862699468949
857.827,75.30966063281039
857.945,107.64431218156278
858.062,155.82247247988357
858.18,206.49142798653412
858.298,249.1479411098919
858.415,284.63518706247726
858.533,316.22286591549545
858.651,344.22872658669553
858.768,356.90471712802537
858.886,372.0231319117795
859.003,399.48180643579326
859.121,413.2755458948721
859.239,404.7498048344704
859.356,391.2864014364064
859.474,361.2706170859616
859.592,335.0712829519672
859.709,286.3126414586654
859.827,251.4457748571385
859.944,233.7702502469535
860.062,211.48260442464726
860.18,191.23824864563096
860.297,182.71597078869246
860.415,174.89412583218683
860.532,183.03158823498845
860.65,175.13008959882904
860.768,181.56192429600299
860.885,191.8777416771594
861.003,193.24464130939793
861.12,188.647904578
861.238,183.20874360417764
861.356,179.51330557407823
861.473,186.47933940545053
861.591,189.31117410262365
861.708,191.7837014404894
861.826,198.10904263116896
861.943,199.7175007049653
862.061,187.663621116424
862.178,178.6296549477961
862.296,169.50477968825913
862.414,171.15133300015066
862.531,173.05676077091658
862.649,171.27301105250507
862.766,180.26934791417995
862.884,183.88906139923114
863.001,182.7382121137194
863.119,181.3025143433592
863.236,181.89192479810714
863.354,188.7722443437643
863.471,192.90797514483285
863.589,203.52162802382355
863.706,224.50151466904805
863.824,243.62079525366642
863.941,251.7054438036527
864.059,246.6697460332928
864.176,236.72149415037882
864.294,230.4191297133524
864.411,212.27693843649934
864.529,203.85076447566377
864.646,212.55705804729587
864.764,224.2321827877592
864.881,234.5523291732443
864.999,245.12442361067752
865.116,267.5346132862061
865.233,301.0573570742887
865.351,318.4225251047957
865.468,336.2171303647399
865.586,357.81866203161053
865.703,366.6444361227234
865.821,361.2347123783385
865.938,343.3782353872003
866.056,337.3892908635944
866.173,327.9787013183434
866.29,320.67980008478065
866.408,321.910768981088
866.525,328.5902227258801
866.643,338.87313967413536
866.76,339.64523411156836
866.878,334.1826965143697
866.995,326.26041865743093
867.112,321.30870357105493
867.23,321.14400147169204
867.347,317.17670196973165
867.465,308.5072379656066
867.582,312.0057393294469
867.699,318.76224935129574
867.817,322.1672442216296
867.934,324.63803995776425
868.051,344.2413032263664
868.169,366.09478294518516
868.286,383.31882543456663
868.404,389.9220887031689
868.521,412.9296809761001
868.638,438.41259792435585
868.756,461.71109928819595
868.873,482.03557467801
868.99,520.0777989855728
869.108,561.4524908256033
869.225,610.9120311504823
869.342,656.2365065402963
869.46,712.0371724063009
869.577,761.167781052713
869.694,800.1526874314665
869.812,816.5304474220325
869.929,837.7706913908354
870.046,843.6864063508621
870.164,839.7529169774373
870.281,816.1589678593054
870.398,793.9772862691939
870.516,765.4927206919513
870.633,740.4882215233526
870.75,704.7717696596229
870.867,677.8235177767092
870.985,648.0475602660899
871.102,614.7806936645616
871.219,577.4393681885743
871.337,546.9906834052276
871.454,513.4060678859503
871.571,488.75824890346934
871.688,450.9909494015078
871.806,424.63057630647234
871.923,402.8502897915231
872.04,378.41805522462585
872.157,347.4299765018841
872.275,322.2453609826054
872.392,293.85295325553443
872.509,263.9211515890696
872.626,231.50796464121964
872.744,213.32594652453844
872.861,200.66600632993521
872.978,177.01299254225853
873.095,156.3634419580451
873.213,140.803934663875
873.33,116.90157022684792
873.447,84.13415729202018
873.564,61.52670453898748
873.681,39.32028085006557
873.799,25.821460669524214
873.916,11.655525565983469
874.033,10.380464626837519
874.15,8.424706973528282
874.267,-2.6508857316311354
874.385,-12.845465887879968
874.502,-15.365153814636894
874.619,-27.4555635564597
874.736,-26.312073455673186
874.853,-25.711891153165887
874.97,-23.865697359128728
875.088,-22.505059676475565
875.205,-19.01575694117698
875.322,-15.25239891045186
875.439,-19.63989171349124
875.556,-28.2100894569437
875.673,-32.36081317512952
875.791,-36.40077454648744
875.908,-42.09493004069668
876.025,-39.783048927640394
876.142,-27.998074203971555
876.259,-23.865510962221588
876.376,-25.400472368297187
876.493,-26.957664204190923
876.61,-28.216512996436755
876.728,-26.52628720057094
876.845,-25.649872216255233
876.962,-27.759610432199597
877.079,-24.10082695118239
877.196,-26.4102065565097
877.313,-24.020721988017094
877.43,-22.177597572405816
877.547,-15.584648650465253
877.664,-13.687431306951602
877.781,-16.688444303889764
877.898,-18.795892864703028
878.016,-15.947685964758222
878.133,-17.242333550958858
878.25,-19.508879761765698
878.367,-23.758934237631472
878.484,-30.852902304904582
878.601,-42.071136537182795
878.718,-46.73614214495106
878.835,-44.4317436167573
878.952,-40.159104112589674
879.069,-36.095989037331506
879.186,-43.01345514529796
879.303,-41.54839488853176
879.42,-42.102851783293005
879.537,-44.71801109607375
879.654,-35.13230035946668
879.771,-37.210184358819106
879.888,-35.75875600742184
880.005,-37.854895847579684
880.122,-42.3614042361263
880.239,-49.27828117306172
880.356,-58.60552665838597
