wavelength_nm,intensity
792.446,0.2325878520568505
792.565,0.19416956749117115
792.684,0.16267778845863407
792.803,0.13811251495923926
792.922,0.12047374699298657
793.041,0.10360870276796386
793.16,0.10352610112443983
793.279,0.10890171201992047
793.398,0.11801651069980741
793.518,0.13790009214998752
793.637,0.1617387963896919
793.756,0.1862792893960295
793.875,0.19553262469064575
793.994,0.19887376361019615
794.113,0.19269294929201675
794.232,0.17790400306800713
794.351,0.15683017746311073
794.47,0.1476685495050054
794.589,0.14352676000924974
794.708,0.14665196392368224
794.827,0.1504314769198877
794.946,0.15789229150936845
795.066,0.16831961079265295
795.185,0.1703053022704391
795.304,0.1746844901904961
795.423,0.17532058788629523
795.542,0.16758920413377512
795.661,0.15914237307514148
795.78,0.14943245231789642
795.899,0.1379404173617867
796.018,0.12808480551675125
796.137,0.11979277123889487
796.256,0.12149163338759365
796.375,0.11543569714466315
796.494,0.11567504678889022
796.613,0.11581062294701325
796.732,0.10932423079938924
796.851,0.10165320564149706
796.97,0.09963975276933709
797.089,0.09972931896176705
797.208,0.11073807698096165
797.327,0.1193709670443056
797.446,0.1378821947311129
797.565,0.14773115399961448
797.684,0.14906110317228644
797.803,0.14821609253437307
797.922,0.14554539045258613
798.041,0.14242720860115715
798.16,0.1413103279869204
798.279,0.1320275919833599
798.398,0.1295988411723674
798.517,0.12790439946010398
798.636,0.13091890183535165
798.755,0.13855064096159958
798.874,0.14215181012786032
798.993,0.14441314161176294
799.112,0.14434991975743838
799.231,0.1416831201155024
799.35,0.14327193113165848
799.469,0.14462399413015506
799.588,0.14060304785973868
799.707,0.14180681814387713
799.826,0.13947172588932114
799.945,0.13097338029591776
800.064,0.13254137829953247
800.183,0.1429022236952832
800.302,0.15526697195479397
800.421,0.16821513497210833
800.54,0.17127386499900737
800.659,0.1808412142916142
800.778,0.18878449819934323
800.897,0.188799975548692
801.016,0.19475366553878334
801.135,0.1996042658641759
801.254,0.20374852457644163
801.373,0.20515717295278574
801.492,0.20256777170123866
801.611,0.2014847122323814
801.729,0.1981440913094147
801.848,0.19262395772936936
801.967,0.18366122179363387
802.086,0.16776515105501594
802.205,0.1468283500499185
802.324,0.12464197202509508
802.443,0.09850051621801248
802.562,0.07795303854210892
802.681,0.05697205601384264
802.8,0.04567710232824465
802.919,0.039551905424547895
803.038,0.035208245673347176
803.157,0.03100944215386758
803.276,0.03784309733780891
803.394,0.03789209885635011
803.513,0.039600726390832466
803.632,0.034878913538995714
803.751,0.028636003462580918
803.87,0.02548662533173217
803.989,0.023351070607400763
804.108,0.020145328363068996
804.227,0.0248126613616503
804.346,0.024787763498931237
804.465,0.03390209851784011
804.583,0.04669022466924813
804.702,0.04861937596683637
804.821,0.05262447475024834
804.94,0.05048616850376163
805.059,0.048515252967061606
805.178,0.04883198970367097
805.297,0.04724689666991752
805.416,0.05809369555346765
805.535,0.07064949621454268
805.653,0.07824179176890284
805.772,0.08792640262775818
805.891,0.09316650443092121
806.01,0.10771048487329296
806.129,0.13319038872577776
806.248,0.16127747283107619
806.367,0.18912876395053096
806.485,0.21619631506647036
806.604,0.23721638522582422
806.723,0.2502253967766319
806.842,0.24981977133781008
806.961,0.240682436731193
807.08,0.23222867950523549
807.198,0.21941524655847855
807.317,0.20516571574635917
807.436,0.19567586073982082
807.555,0.1869242172718633
807.674,0.18802428320908965
807.793,0.19211036603937723
807.912,0.20989336234188816
808.03,0.2363313198284476
808.149,0.2609487891242688
808.268,0.29045926758726504
808.387,0.31301819986140506
808.506,0.3176096486524655
808.624,0.3100209322602633
808.743,0.2932822952295103
808.862,0.2795082116726351
808.981,0.2597614439229954
809.1,0.24396264448981858
809.219,0.23875311559376455
809.337,0.2349744813099377
809.456,0.23131422103494056
809.575,0.23460680776208365
809.694,0.23975305341870284
809.812,0.24055588352057083
809.931,0.24657172285743917
810.05,0.2573485388131725
810.169,0.26658454143419397
810.288,0.27455355191675257
810.406,0.27966207398814075
810.525,0.28045970083687377
810.644,0.27912789633995616
810.763,0.27444909926371097
810.882,0.28479014276935743
811.0,0.29620110520096454
811.119,0.3092920679886547
811.238,0.33064254472210497
811.357,0.35092440334287833
811.475,0.35915877973534105
811.594,0.36043835790573786
811.713,0.3632938713695103
811.832,0.36550288063121295
811.95,0.3612949779637188
812.069,0.34978691114729854
812.188,0.3495256759829838
812.307,0.3513919209443941
812.425,0.34845101041536314
812.544,0.3473631084091664
812.663,0.35364561446922327
812.782,0.35702340446645886
812.9,0.364734853918817
813.019,0.3720619130457995
813.138,0.38058441958063355
813.257,0.39630237479504443
813.375,0.4131448830933375
813.494,0.42224950357269136
813.613,0.42893656256402346
813.731,0.4352919141679755
813.85,0.4413201112310412
813.969,0.4491720485180546
814.088,0.4551228471907316
814.206,0.4631555975241991
814.325,0.46805468865688915
814.444,0.466654834892432
814.562,0.46870057243136276
814.681,0.46821023519061467
814.8,0.4657509831977942
814.918,0.46242135327110645
815.037,0.46009516694592734
815.156,0.45618640741397687
815.274,0.4573793037342817
815.393,0.4645161325081302
815.512,0.47751361994195274
815.631,0.48299443895837646
815.749,0.48665125340499693
815.868,0.48602318889463886
815.987,0.480873497409643
816.105,0.47281713864190045
816.224,0.4630833811446424
816.343,0.452089785981983
816.461,0.4374474095581446
816.58,0.42007332523823626
816.698,0.40637468885182604
816.817,0.3931638574468569
816.936,0.3763653830050492
817.055,0.36190186840773936
817.173,0.349148272872041
817.292,0.33555695358154797
817.41,0.3202205932707798
817.529,0.309624396566335
817.648,0.3000434846299296
817.766,0.29530029729613577
817.885,0.28823580865732423
818.004,0.2920220540256879
818.122,0.305656756766026
818.241,0.31236592958318454
818.359,0.3172338011970635
818.478,0.32792098086062904
818.597,0.32002080335092276
818.715,0.3400567526421985
818.834,0.3555595341270016
818.953,0.464978799038076
819.071,0.594973647551802
819.19,0.7191778074621504
819.308,0.8105331472900597
819.427,0.8425195706342201
819.546,0.7867571362357155
819.664,0.6868820106987362
819.783,0.5445533391403597
819.901,0.4635078445371155
820.02,0.379991901633533
820.138,0.32484232785265177
820.257,0.2874546835486604
820.376,0.25989913365611406
820.494,0.24199171588983034
820.613,0.22642966447431545
820.731,0.22817753542689762
820.85,0.2360730499589212
820.969,0.2556856401451593
821.087,0.2807479875840573
821.206,0.3074922865989641
821.324,0.3268505677882111
821.443,0.33202152889722597
821.561,0.3267183414447382
821.68,0.3084935252371972
821.798,0.2746290309180135
821.917,0.25092909159877785
822.035,0.23066460016217114
822.154,0.21090027143320217
822.273,0.2072341574984305
822.391,0.20804674369992981
822.51,0.21770290901163472
822.628,0.2168907794216141
822.747,0.21995312219751928
822.865,0.22997741766855143
822.984,0.23193862199968363
823.102,0.22643315808155792
823.221,0.2289816796103455
823.339,0.2327113396008625
823.458,0.24299059447552848
823.576,0.24576415670242124
823.695,0.25554389927609167
823.813,0.26242022660022474
823.932,0.25869167362782897
824.05,0.246654175804887
824.169,0.23942058143917674
824.287,0.23825983388908695
824.406,0.23921681036509346
824.524,0.23779980259808678
824.643,0.23763547802342064
824.761,0.23828546256443994
824.88,0.2351754463085114
824.998,0.2337499832551593
825.117,0.2384825702875194
825.235,0.23994166069108905
825.354,0.241713596689423
825.472,0.24949594046575288
825.591,0.24727763171589873
825.709,0.24729607140761228
825.828,0.24338085172898483
825.946,0.24213685212872882
826.064,0.24211756823521113
826.183,0.23820755180971948
826.301,0.2407872928573198
826.42,0.24398687143467124
826.538,0.24276498566024063
826.657,0.24652131232307653
826.775,0.24927211031750196
826.894,0.2439747765247916
827.012,0.23903321516521234
827.13,0.23345490570319205
827.249,0.22991887309680498
827.367,0.22032365221427797
827.486,0.21510046477874684
827.604,0.2154213435589542
827.723,0.22425279324870367
827.841,0.2317944865675231
827.959,0.2464418724493343
828.078,0.26663202373359995
828.196,0.2875363215106953
828.315,0.2960594784521744
828.433,0.3022314153831075
828.552,0.29659847176316667
828.67,0.2828465020321207
828.788,0.2582294893477772
828.907,0.22712717999360105
829.025,0.19397035622517558
829.143,0.16568618700493712
829.262,0.1382324791142928
829.38,0.12091461015118632
829.499,0.11426777971921573
829.617,0.11284530367048806
829.735,0.1186835215560938
829.854,0.13358530301351396
829.972,0.1626413598590149
830.091,0.20339088292158997
830.209,0.2510408717313542
830.327,0.31292641133553056
830.446,0.3755567600633867
830.564,0.4200129809213339
830.682,0.4459248076048171
830.801,0.4480005316751637
830.919,0.41695494791230314
831.037,0.3683581409171928
831.156,0.31749531718162816
831.274,0.27660127604679335
831.392,0.23338073035380552
831.511,0.2106421402215658
831.629,0.20249997594732705
831.747,0.19863098331051215
831.866,0.19203288440419497
831.984,0.19008259136104833
832.102,0.19524384454067062
832.221,0.19429322650615716
832.339,0.1811585408485295
832.457,0.1788219062600815
832.576,0.17625958056688695
832.694,0.1682876962115814
832.812,0.1576698598132844
832.93,0.15125137436912
833.049,0.1539724166897652
833.167,0.15050664126341418
833.285,0.14503312284952435
833.404,0.15329311738177476
833.522,0.16267200472678045
833.64,0.16296287244033383
833.759,0.17344510761255272
833.877,0.1901481410818947
833.995,0.21133860773024832
834.113,0.2227855662480256
834.232,0.23770764745358913
834.35,0.25159753331842344
834.468,0.25730595403452805
834.586,0.2538449419128244
834.705,0.2571520613069553
834.823,0.2534965775993173
834.941,0.2396654819788187
835.059,0.2250285325289796
835.178,0.21589597448972156
835.296,0.2102834171965423
835.414,0.21174468254090056
835.532,0.22362676310212387
835.651,0.23494364029151743
835.769,0.2524647464381995
835.887,0.2613263385543397
836.005,0.28073427436923587
836.124,0.296946762352372
836.242,0.31806266600895383
836.36,0.32966312049422486
836.478,0.34863593426567524
836.596,0.3551176884790246
836.715,0.3690804198877542
836.833,0.37772217455892465
836.951,0.39312815830607806
837.069,0.40163072595587734
837.188,0.41011117977985134
837.306,0.41461699861504353
837.424,0.42222720835212657
837.542,0.4256422952488168
837.66,0.4355744566975597
837.779,0.4419762108939531
837.897,0.4514582909464864
838.015,0.45241158870350384
838.133,0.4472094380013768
838.251,0.44427785688619736
838.369,0.4422119670114153
838.487,0.4476238022988043
838.606,0.45243271062913215
838.724,0.4561821065397699
838.842,0.45984564877367406
838.96,0.4501309767898962
839.078,0.43555256393782993
839.196,0.4323217957673666
839.315,0.4325648494714055
839.433,0.43765408306440107
839.551,0.4406958365486279
839.669,0.4452679968612958
839.787,0.4458408067327889
839.905,0.4375049968298842
840.023,0.4304173172728267
840.142,0.43202167207840736
840.26,0.41846504806079937
840.378,0.40864501020103
840.496,0.4054474127693047
840.614,0.40272461218618205
840.732,0.40233416982098963
840.85,0.40061624749963554
840.968,0.40813800193341737
841.087,0.41673813057950504
841.205,0.4183002089533607
841.323,0.4237946458842735
841.441,0.4392897353413702
841.559,0.44861051454670686
841.677,0.45950007457235786
841.795,0.4652208530146593
841.913,0.47660732371473846
842.031,0.4908432259130755
842.149,0.5029841683177836
842.267,0.5108590935581289
842.385,0.5211379217470158
842.504,0.5276834158112738
842.622,0.5331108608580688
842.74,0.5306137513796931
842.858,0.5323540411734357
842.976,0.5381645757323226
843.094,0.5375503934823098
843.212,0.5350591376637116
843.33,0.5301197512449214
843.448,0.5325865452576904
843.566,0.530926509127468
843.684,0.5334973682029441
843.802,0.5448409120646565
843.92,0.5545571385082813
844.038,0.5629218199499932
844.156,0.5674360940715303
844.274,0.5730339456585085
844.392,0.574456837010993
844.51,0.5722101340897566
844.628,0.564932535793258
844.746,0.5588620922241654
844.864,0.5417061178501641
844.982,0.5127836369171621
845.1,0.48490375783116024
845.218,0.46708892152889236
845.336,0.43812026172431384
845.454,0.41474314782033367
845.572,0.38355985340001236
845.69,0.3625638782121064
845.808,0.3421344072093141
845.926,0.318158919194766
846.044,0.30648457199887813
846.162,0.29818453446127857
846.28,0.2801316493280671
846.398,0.2616221787322268
846.516,0.23809482089396264
846.634,0.21515022740686
846.752,0.2013646602512949
846.87,0.1813924279838328
846.988,0.1674401408810752
847.106,0.15127880330955037
847.224,0.13340687762963133
847.342,0.1248573821391486
847.46,0.1269204635676724
847.578,0.12054995006158625
847.696,0.12571894851616253
847.814,0.13185929377321487
847.932,0.14123158364914912
848.05,0.14400312454091685
848.168,0.15259994584402767
848.285,0.16545353713949704
848.403,0.17884433021094748
848.521,0.1799863913637817
848.639,0.18752129940006151
848.757,0.2028714936456693
848.875,0.21774884226260022
848.993,0.21997318006759142
849.111,0.22238093254560426
849.229,0.22192624539252087
849.347,0.2185330210312364
849.465,0.21111573077638401
849.582,0.212876328645685
849.7,0.217800504421292
849.818,0.23219590171655896
849.936,0.23451975173776413
850.054,0.2314309176848992
850.172,0.23645460567672044
850.29,0.24341520464818367
850.408,0.24456962352721426
850.525,0.2534983529971317
850.643,0.26408822103051643
850.761,0.2811262205119102
850.879,0.2883860065386572
850.997,0.285066928534552
851.115,0.2825224848409754
851.233,0.28649836773266124
851.35,0.2892853072829148
851.468,0.3004390778748457
851.586,0.325464721325677
851.704,0.3571518296030675
851.822,0.39670885824770735
851.94,0.44280377445694125
852.057,0.4990625952594814
852.175,0.55869572572031
852.293,0.614601375716287
852.411,0.6644907642744909
852.529,0.7106936479862842
852.647,0.7451131145663867
852.764,0.7724854251812707
852.882,0.7879136682239094
853.0,0.808489879837356
853.118,0.8061490134227012
853.236,0.7983870076476312
853.353,0.7843928054296698
853.471,0.7651023419265424
853.589,0.7384291126309644
853.707,0.7084648257272643
853.824,0.6794865552927168
853.942,0.6643437349451223
854.06,0.630613593584697
854.178,0.5969101188965906
854.296,0.5621347740625977
854.413,0.5218394280586175
854.531,0.47559611331426566
854.649,0.4253261310497782
854.767,0.38536574446638727
854.884,0.34256958492421896
855.002,0.29847391291149156
855.12,0.25118409388028806
855.238,0.21847183891446967
855.355,0.18835860888976927
855.473,0.1585277862551312
855.591,0.12798505436697338
855.708,0.10396346018188317
855.826,0.08207750445337939
855.944,0.0654427155954972
856.062,0.04454848676343703
856.179,0.04113613395472965
856.297,0.037636059361916524
856.415,0.03283411793053494
856.532,0.025002279621264493
856.65,0.019614208939977847
856.768,0.023157217119009595
856.886,0.022458735581545514
857.003,0.024322660103352885
857.121,0.025899313335573604
857.239,0.03270091191956399
857.356,0.03585329354130035
857.474,0.03785565671444226
857.592,0.04856855056378418
857.709,0.07327607429427527
857.827,0.09480893055762551
857.945,0.12060880710388704
858.062,0.14213989199750365
858.18,0.16687190342377928
858.298,0.19116196579216915
858.415,0.21033235416372506
858.533,0.2325986781508269
858.651,0.2608123204716584
858.768,0.27596514701606567
858.886,0.2902236644278311
859.003,0.29799827802628165
859.121,0.29262362054500657
859.239,0.289952053067557
859.356,0.26893186381486195
859.474,0.25450029384483097
859.592,0.24172270796520623
859.709,0.2166608918396114
859.827,0.19236005148506474
859.944,0.17277530969109045
860.062,0.1521505676766839
860.18,0.14190046200756612
860.297,0.12843279468086305
860.415,0.12701000795590295
860.532,0.12898754715490798
860.65,0.12387825558353704
860.768,0.1200665252627994
860.885,0.12705935007766056
861.003,0.12873965344130744
861.12,0.13399524211559655
861.238,0.13698936689592478
861.356,0.1381103205475194
861.473,0.1442998931596078
861.591,0.14298702515713252
861.708,0.14543025551175368
861.826,0.14982275457221347
861.943,0.1427089097304412
862.061,0.13754433359450746
862.178,0.13019634236164332
862.296,0.12929388095022062
862.414,0.13737093363716518
862.531,0.13716375692595634
862.649,0.13723690547741568
862.766,0.14011460746884025
862.884,0.13990417872442193
863.001,0.14161570160688147
863.119,0.13881860564754167
863.236,0.14606573945939472
863.354,0.1521460437556408
863.471,0.14943285025310915
863.589,0.14766339678800566
863.706,0.15746662870261033
863.824,0.16732254355521073
863.941,0.17392902682477168
864.059,0.1776906314425683
864.176,0.18332540718909876
864.294,0.17737709104965033
864.411,0.16594194447895266
864.529,0.15764370914224224
864.646,0.15665214202087718
864.764,0.1630726089908487
864.881,0.16585274998598581
864.999,0.1773210229039095
865.116,0.1955567769310256
865.233,0.21219318102565676
865.351,0.22968942270090814
865.468,0.24729948553849562
865.586,0.25887832758554585
865.703,0.2588740777466172
865.821,0.24862397207750014
865.938,0.23706915068468876
866.056,0.2298655497263316
866.173,0.23091300742738963
866.29,0.2371793280232252
866.408,0.24368890070313917
866.525,0.24888790399958136
866.643,0.2490260932152329
866.76,0.2577841216562692
866.878,0.26094214891036194
866.995,0.2592591995286337
867.112,0.262622104874932
867.23,0.25717004900326923
867.347,0.24800417120623508
867.465,0.24422300999766844
867.582,0.245928028813709
867.699,0.2578743506134444
867.817,0.26150522349621413
867.934,0.2626086161684773
868.051,0.27327168566370175
868.169,0.2799594697635024
868.286,0.29335749918800647
868.404,0.3083600817981307
868.521,0.32503225825806725
868.638,0.3494273631841788
868.756,0.3629619780034862
868.873,0.384209114782698
868.99,0.4110406429894472
869.108,0.4443437172833148
869.225,0.48089557275357997
869.342,0.5075684017397005
869.46,0.5348155397906379
869.577,0.5633433285195186
869.694,0.5803433099269838
869.812,0.5989445924868596
869.929,0.6054411570339355
870.046,0.6172092674137846
870.164,0.6135211143550123
870.281,0.6010140976384275
870.398,0.5861727714839866
870.516,0.5681802251494363
870.633,0.5475828002139909
870.75,0.5259011474064623
870.867,0.50012908722789
870.985,0.48074141864641823
871.102,0.4523443172610505
871.219,0.4280733956120323
871.337,0.4038330430751843
871.454,0.3865416351006248
871.571,0.3671292510667596
871.688,0.34943589178749274
871.806,0.3356254601604969
871.923,0.3179626699934004
872.04,0.2973385783856356
872.157,0.2752757872859405
872.275,0.25522080148985676
872.392,0.23973036950677745
872.509,0.22198953054264992
872.626,0.20577454556046998
872.744,0.19003370702025063
872.861,0.17736083660997465
872.978,0.15920829024151056
873.095,0.14470712676079334
873.213,0.1336101916438929
873.33,0.1189522796346889
873.447,0.10438712119388821
873.564,0.08711105552225379
873.681,0.07389048608740127
873.799,0.06258552861787976
873.916,0.04611330663852231
874.033,0.038529764311336236
874.15,0.04108769808321869
874.267,0.043133984415492856
874.385,0.04172383678323219
874.502,0.03776249273423836
874.619,0.042825469840832055
874.736,0.03773443776553535
874.853,0.02943877095130945
874.97,0.027896956483680672
875.088,0.03681938742633101
875.205,0.0397412047051475
875.322,0.03365967432176426
875.439,0.026492207852489326
875.556,0.026725492124437644
875.673,0.023092108580663073
875.791,0.021516984771554233
875.908,0.030396561968194825
876.025,0.03725356313408605
876.142,0.037825296841469826
876.259,0.03492922438202394
876.376,0.029007445193143175
876.493,0.025997006772080875
876.61,0.020223430490387204
876.728,0.02425021524598265
876.845,0.02849146035414817
876.962,0.03389251067832919
877.079,0.04189600036637925
877.196,0.04684448719056293
877.313,0.04722562390073
877.43,0.04280697336598019
877.547,0.03601852744872261
877.664,0.036714144532566016
877.781,0.028389649746490404
877.898,0.027526447619051132
878.016,0.023857957037686145
878.133,0.025151725696730277
878.25,0.025013614576792152
