wavelength_nm,intensity
792.446,0.20187900430236114
792.565,0.17008344545519524
792.684,0.14265350080024572
792.803,0.1195891703375126
792.922,0.10089045406699569
793.041,0.07862712190866311
793.16,0.06740364628996495
793.279,0.07131934194736979
793.398,0.08275738024788115
793.518,0.10379061267757222
793.637,0.12948291335724743
793.756,0.15714691156006616
793.875,0.1746625004974386
793.994,0.1769458027234878
794.113,0.16973004271613135
794.232,0.15729873535449979
794.351,0.14459592019154877
794.47,0.134444907279723
794.589,0.13021944389965456
794.708,0.1321805238831356
794.827,0.13153352095508125
794.946,0.13526589556949345
795.066,0.14441358295919693
795.185,0.15425519233769383
795.304,0.17155986467409862
795.423,0.17223762190646802
795.542,0.1704526363942953
795.661,0.1575877824068662
795.78,0.14226822576923936
795.899,0.12630051383370175
796.018,0.11619835995673697
796.137,0.10707771605857369
796.256,0.10464333831089875
796.375,0.0985092802272492
796.494,0.09962738724216816
796.613,0.09172463301205575
796.732,0.08928596751923909
796.851,0.08707502053674168
796.97,0.08616916405275371
797.089,0.09003470929301705
797.208,0.10129540726320765
797.327,0.11706857556043956
797.446,0.1308229786355965
797.565,0.142476567820991
797.684,0.15289569329013572
797.803,0.1610685400932392
797.922,0.16048448721779648
798.041,0.15714020810707227
798.16,0.1545244852377018
798.279,0.1461446331922559
798.398,0.13546160335156265
798.517,0.1341174523261846
798.636,0.1331548965477634
798.755,0.14110633152200036
798.874,0.14610334105910072
798.993,0.14483340628920838
799.112,0.14590128356712329
799.231,0.14570068134502406
799.35,0.14412645992763895
799.469,0.14760822091523412
799.588,0.14916716241694747
799.707,0.14972171059441763
799.826,0.14950812052760834
799.945,0.14746757363825336
800.064,0.14920463415313318
800.183,0.15817345029632293
800.302,0.16535118080711847
800.421,0.17954791368049744
800.54,0.19379907180789946
800.659,0.20382608806055952
800.778,0.21207067724396544
800.897,0.21386649229443805
801.016,0.21202261848212064
801.135,0.20844888744818477
801.254,0.20486959019508755
801.373,0.2073951984245052
801.492,0.2089609430829713
801.611,0.20890320715268235
801.729,0.20723621541593976
801.848,0.20655877375234313
801.967,0.19068802765318127
802.086,0.17067292215392477
802.205,0.15087861001473896
802.324,0.1253488861006927
802.443,0.09732484255825333
802.562,0.07649590612320437
802.681,0.06281331395624334
802.8,0.059317601671498674
802.919,0.05040560838129807
803.038,0.04887656470640858
803.157,0.04304433997246393
803.276,0.03773126462436478
803.394,0.03226921359127585
803.513,0.03386122014095993
803.632,0.028947662503350808
803.751,0.03213083829157004
803.87,0.03667811090695583
803.989,0.039743313018328785
804.108,0.036956151135832595
804.227,0.04072973901689163
804.346,0.038243096426656874
804.465,0.04159352031544125
804.583,0.03829111406417611
804.702,0.042800551111350275
804.821,0.04451450827387714
804.94,0.04516261119116178
805.059,0.049179908000571045
805.178,0.054467531535406365
805.297,0.05218218706614414
805.416,0.056435539347715724
805.535,0.06293463765997236
805.653,0.06947433417888657
805.772,0.07248769832675953
805.891,0.0843101857564751
806.01,0.09889999576847305
806.129,0.12572408720911532
806.248,0.15691785702766486
806.367,0.19457957351181487
806.485,0.23078294057566595
806.604,0.25777174105214073
806.723,0.2699605832471258
806.842,0.2651291641839999
806.961,0.2465021801636274
807.08,0.23381868127008792
807.198,0.221798799394352
807.317,0.20570073427966323
807.436,0.19679236891517587
807.555,0.19601068352639997
807.674,0.19713264509083872
807.793,0.19745121568964208
807.912,0.2093172171732634
808.03,0.23623241986304808
808.149,0.26176410785681536
808.268,0.28247606852556606
808.387,0.30134251830789954
808.506,0.3115466941374314
808.624,0.30833566331908235
808.743,0.2946347832565901
808.862,0.2800748500368482
808.981,0.26877548430812237
809.1,0.2549069992019912
809.219,0.24826161116103002
809.337,0.24172569209691064
809.456,0.24303504970645184
809.575,0.24235355626258262
809.694,0.2493565376054877
809.812,0.25326470109462884
809.931,0.26723535189007314
810.05,0.2843422579485944
810.169,0.30398550453834794
810.288,0.31380499277694457
810.406,0.3261441228892893
810.525,0.32338395582301754
810.644,0.32581645276557947
810.763,0.3198278785856691
810.882,0.32036786101333925
811.0,0.3200073528744466
811.119,0.33578888030374776
811.238,0.3494410196693979
811.357,0.3692747546482317
811.475,0.3771040103022131
811.594,0.38689628591379777
811.713,0.3911081175816348
811.832,0.3872235742447504
811.95,0.3764857781825345
812.069,0.368504497542826
812.188,0.35834868061737934
812.307,0.34513082468434153
812.425,0.33488532978351604
812.544,0.3275355057842341
812.663,0.3250919947413689
812.782,0.32616633420853747
812.9,0.3312625762542487
813.019,0.3427878014314301
813.138,0.3584654261030503
813.257,0.36609862714878905
813.375,0.38364093523949344
813.494,0.3958916243140497
813.613,0.41058340972529783
813.731,0.4186161416130692
813.85,0.4263767472307256
813.969,0.43889832563780573
814.088,0.448511863767428
814.206,0.452151611799227
814.325,0.4615375534120256
814.444,0.4704955146181887
814.562,0.4824109936054668
814.681,0.4837296282469429
814.8,0.48719991582871586
814.918,0.4864949205706084
815.037,0.4831094815518667
815.156,0.4772878939467985
815.274,0.4761042038408064
815.393,0.4782243740415305
815.512,0.482292102479965
815.631,0.48724609670266095
815.749,0.4947852904914508
815.868,0.49681763812318314
815.987,0.49796743078342837
816.105,0.49997813200731056
816.224,0.49574662767602873
816.343,0.48728727065723076
816.461,0.47528727528335063
816.58,0.46321350286922885
816.698,0.44683991104047116
816.817,0.4348749247111837
816.936,0.42029273836203007
817.055,0.4059939706449194
817.173,0.39004281422925996
817.292,0.37081455158870513
817.41,0.3618245813160419
817.529,0.3492213761183155
817.648,0.33802913623334774
817.766,0.32827656096270696
817.885,0.3210968158822458
818.004,0.3165919483432573
818.122,0.32584182682099794
818.241,0.3296021762679612
818.359,0.3475147584502741
818.478,0.3546849639771233
818.597,0.34230523783806166
818.715,0.3491422269864586
818.834,0.35915889961781733
818.953,0.4572240030154544
819.071,0.5721686571127291
819.19,0.710770880987323
819.308,0.8270803826956248
819.427,0.8879899157223867
819.546,0.8487153430291368
819.664,0.7594796221361375
819.783,0.6154139499044895
819.901,0.5219875365256308
820.02,0.40811079546561024
820.138,0.34249498741957124
820.257,0.2963906181510221
820.376,0.270744802959394
820.494,0.24198699083079178
820.613,0.22837857185325888
820.731,0.22467369370153017
820.85,0.23180995506991162
820.969,0.24369512908620022
821.087,0.26670284592464993
821.206,0.2974265794584553
821.324,0.32166628613797166
821.443,0.3277124962539034
821.561,0.3241916125689005
821.68,0.29874848395093967
821.798,0.2659393919759985
821.917,0.24283840468741494
822.035,0.22546753079114235
822.154,0.2200634096231832
822.273,0.22483681095753044
822.391,0.23257020394817562
822.51,0.24068209984179917
822.628,0.23486051223673166
822.747,0.23820153984020023
822.865,0.24074721657237785
822.984,0.24094085647444666
823.102,0.23730184524946193
823.221,0.23877757096505048
823.339,0.2449344869954152
823.458,0.2528923841589054
823.576,0.2541188669498201
823.695,0.26905989528574226
823.813,0.2726297563436254
823.932,0.27378635216062364
824.05,0.2677272725380002
824.169,0.26953697140327426
824.287,0.27104609443383026
824.406,0.2732806813617613
824.524,0.27199741777965836
824.643,0.2713177797421745
824.761,0.26642203992429314
824.88,0.263088552284391
824.998,0.26386911907359323
825.117,0.26636346289572516
825.235,0.2691503424582309
825.354,0.27012634538687946
825.472,0.2702259780319981
825.591,0.2638885874513021
825.709,0.2584770446577934
825.828,0.2600628578190182
825.946,0.25589938505526494
826.064,0.2515188297442152
826.183,0.24798928749607083
826.301,0.25185725051348845
826.42,0.2552564141837531
826.538,0.25988756769508436
826.657,0.26081223771368817
826.775,0.26728271742347953
826.894,0.2615551370753593
827.012,0.2534810861162918
827.13,0.24675838947586426
827.249,0.25002953010541545
827.367,0.24145204554663494
827.486,0.23956948570148273
827.604,0.24209537143219595
827.723,0.2506791590169498
827.841,0.2615450964578967
827.959,0.2793063425022838
828.078,0.30391589352163706
828.196,0.32495255030813736
828.315,0.32805546742525393
828.433,0.3289603464423951
828.552,0.3198633480952134
828.67,0.3000173620784836
828.788,0.2646619768947453
828.907,0.23077099455928776
829.025,0.19554013374691126
829.143,0.16322053250216934
829.262,0.13143576441911314
829.38,0.11022180058415887
829.499,0.10223782832459019
829.617,0.10149840292243745
829.735,0.10121251075736792
829.854,0.12112714457598558
829.972,0.15801319109420273
830.091,0.202617396150017
830.209,0.25265963788676626
830.327,0.31807546287038374
830.446,0.38291913986391724
830.564,0.430004218401423
830.682,0.4581276621310645
830.801,0.46542293222736975
830.919,0.4427960635181276
831.037,0.4021463956329185
831.156,0.35358032716254156
831.274,0.3128997358375466
831.392,0.2704732071022447
831.511,0.24177359328786474
831.629,0.22524668231077183
831.747,0.21842354673846676
831.866,0.20898614356666928
831.984,0.21124769613464028
832.102,0.21579201702759984
832.221,0.21035104346298245
832.339,0.1958304066756137
832.457,0.18886944059125602
832.576,0.1733882325929702
832.694,0.1706260022037591
832.812,0.16184375381570482
832.93,0.16126504058193508
833.049,0.1614210692928097
833.167,0.15618250334904082
833.285,0.15263246222213775
833.404,0.16220282072362358
833.522,0.16702776686242315
833.64,0.17821671237131914
833.759,0.18571019977611294
833.877,0.20071550127401283
833.995,0.2176666674527308
834.113,0.23550595482209713
834.232,0.2571067694070096
834.35,0.28094087481325336
834.468,0.29265732110502884
834.586,0.29580797457613434
834.705,0.3003427612120527
834.823,0.3003021156972625
834.941,0.29580354710294976
835.059,0.2882670597840788
835.178,0.2920664870218911
835.296,0.2960248607402025
835.414,0.2922486636992867
835.532,0.302525933103431
835.651,0.32174378741844945
835.769,0.33706095903888555
835.887,0.3438908833757075
836.005,0.35873307096103346
836.124,0.3784351863430976
836.242,0.3958050558965157
836.36,0.4037810029117999
836.478,0.4307643514258314
836.596,0.45312835650465844
836.715,0.46216312209820914
836.833,0.4675631465793356
836.951,0.4795820241122173
837.069,0.4838316966333116
837.188,0.492015449163957
837.306,0.5005461626889991
837.424,0.5182524792672871
837.542,0.532410640364551
837.66,0.536387568146734
837.779,0.5459919435011391
837.897,0.5547978756402745
838.015,0.5518652700367157
838.133,0.5494039376554929
838.251,0.5549870289001512
838.369,0.5651993590807456
838.487,0.5625172333394521
838.606,0.5628445767581136
838.724,0.5634199261638574
838.842,0.5641845270210902
838.96,0.5492090970273448
839.078,0.5390094830741201
839.196,0.5385284877767806
839.315,0.5395911905935488
839.433,0.5276932613272873
839.551,0.517425615806534
839.669,0.5136958039252969
839.787,0.5093673142498063
839.905,0.4977241941273799
840.023,0.4961225333722023
840.142,0.5007043236365956
840.26,0.4924405170139625
840.378,0.4846591160519882
840.496,0.4760168065263769
840.614,0.47546468731752967
840.732,0.4702332332002932
840.85,0.46384338702868033
840.968,0.4696027418801172
841.087,0.47517655609283915
841.205,0.4697873924326952
841.323,0.4742999141919681
841.441,0.4889887215159562
841.559,0.4980649245188194
841.677,0.5116275001658082
841.795,0.5207884333936847
841.913,0.535147596849556
842.031,0.5527642354524648
842.149,0.5622647080491893
842.267,0.570441657423081
842.385,0.5846313604289259
842.504,0.5875674052279182
842.622,0.5904409846785429
842.74,0.586398227586673
842.858,0.5900362344688032
842.976,0.5952686539062897
843.094,0.5901435764219165
843.212,0.5905272005009881
843.33,0.5937421747268486
843.448,0.587930596879231
843.566,0.5853059887359389
843.684,0.5877058210890456
843.802,0.5968222245636308
843.92,0.6056522769857993
844.038,0.6163426835454823
844.156,0.6249550349515587
844.274,0.6306129609204988
844.392,0.6296359536489952
844.51,0.6272921303389588
844.628,0.6194303284335424
844.746,0.6082541522518827
844.864,0.587394610135694
844.982,0.5690683162067591
845.1,0.5446488677024277
845.218,0.5266695347678897
845.336,0.5023533705524429
845.454,0.48556211617447553
845.572,0.4619757451379739
845.69,0.4364572775836546
845.808,0.4091798847743183
845.926,0.39579824886713455
846.044,0.38005777297308896
846.162,0.3671659643521126
846.28,0.33664470270924474
846.398,0.3145531707519892
846.516,0.29053139768330327
846.634,0.26867673927480706
846.752,0.2455876171500613
846.87,0.22754025264799443
846.988,0.21515929925228
847.106,0.19994823264736825
847.224,0.18349899151343269
847.342,0.17774802360779654
847.46,0.1789276170269565
847.578,0.1809174045685047
847.696,0.17605579479110836
847.814,0.18408369318523424
847.932,0.192698518466495
848.05,0.20408717629654313
848.168,0.21650372926507175
848.285,0.2302481347380031
848.403,0.23829335025840928
848.521,0.24365750354938553
848.639,0.24905938343690054
848.757,0.2656710102467724
848.875,0.272368582261313
848.993,0.2782640002478097
849.111,0.269354512202451
849.229,0.2598723220522591
849.347,0.2486868688386645
849.465,0.23158823546922686
849.582,0.22030197184193046
849.7,0.22129849849755848
849.818,0.22437246183799733
849.936,0.22380488090925893
850.054,0.22289095745491946
850.172,0.22384542823243875
850.29,0.2303067451670154
850.408,0.22912626166172217
850.525,0.23616708385788499
850.643,0.2514490027569667
850.761,0.26833213736815775
850.879,0.2761868644994831
850.997,0.28930352414476235
851.115,0.29685458309739127
851.233,0.30347113569969303
851.35,0.3092509000213909
851.468,0.32302313659012993
851.586,0.346327214238448
851.704,0.38382638768604516
851.822,0.42275917180211253
851.94,0.4751554031321267
852.057,0.5314065504658401
852.175,0.5858894955126006
852.293,0.6397471686068918
852.411,0.6797424821139993
852.529,0.7242328268283726
852.647,0.7573674659845999
852.764,0.7813351606507213
852.882,0.8018456147487888
853.0,0.8251527847410853
853.118,0.8308069998972532
853.236,0.8281063200920902
853.353,0.8084330011260867
853.471,0.7929034230913821
853.589,0.766384891494391
853.707,0.7333656343856267
853.824,0.7032061769882543
853.942,0.6828129603440367
854.06,0.654004857265304
854.178,0.6176681335363174
854.296,0.5810091875647627
854.413,0.544703387275562
854.531,0.5038308133987923
854.649,0.45413268980715193
854.767,0.4152936413306974
854.884,0.3773767298286559
855.002,0.33371980943357193
855.12,0.28309893039872325
855.238,0.2484030043847722
855.355,0.21376521443761842
855.473,0.18143173158727777
855.591,0.1511152861980246
855.708,0.13041567659437353
855.826,0.10802696767759026
855.944,0.0874685069461953
856.062,0.06430768032619931
856.179,0.05774249860110539
856.297,0.048392695236918776
856.415,0.045158805772438734
856.532,0.03666173490856172
856.65,0.030763430097806986
856.768,0.034904103632012205
856.886,0.03407182683633557
857.003,0.029672907806143227
857.121,0.03418826503396333
857.239,0.036498373111285745
857.356,0.04504252116424369
857.474,0.04967843436266618
857.592,0.061253360847489044
857.709,0.08529663143987234
857.827,0.10303421992836694
857.945,0.12613187874713358
858.062,0.1605470542874866
858.18,0.19674148320320625
858.298,0.22721237246069625
858.415,0.25256202863975286
858.533,0.2751261013629035
858.651,0.29513156867817614
858.768,0.3041864274964969
858.886,0.3149859867875332
859.003,0.33460058182391306
859.121,0.3444538838575035
859.239,0.338363678806325
859.356,0.3287463462131768
859.474,0.3073051271835257
859.592,0.2885901186053918
859.709,0.25376028708607556
859.827,0.2288537873940264
859.944,0.21622760410971886
860.062,0.2003068375506309
860.18,0.18584565734943315
860.297,0.17975792617343753
860.415,0.1741705362531763
860.532,0.1799833816443525
860.65,0.17433909259488534
860.768,0.1789335544585005
860.885,0.18630246733969863
861.003,0.1872788867483736
861.12,0.183995293092155
861.238,0.18010992929770436
861.356,0.17747016165782625
861.473,0.1824462187683978
861.591,0.1844690873794243
861.708,0.18623529144022855
861.826,0.19075368164197
861.943,0.1919026538446493
862.061,0.18329218845092637
862.178,0.1768389422166617
862.296,0.17032075675884678
862.414,0.17149694158853762
862.531,0.17285804858814752
862.649,0.17158386004921056
862.766,0.1780102264857364
862.884,0.18059590170086415
863.001,0.1797738138515953
863.119,0.1787482497685358
863.236,0.17916928419865655
863.354,0.1840841128984516
863.471,0.18703839551582624
863.589,0.1946200616627499
863.706,0.20960665470078407
863.824,0.22326415829682406
863.941,0.22903927709146044
864.059,0.22544211975581308
864.176,0.21833577047327174
864.294,0.21383379328949162
864.411,0.20087425532429198
864.529,0.19485517418462017
864.646,0.20107435357458142
864.764,0.2094142624650537
864.881,0.21678626769023018
864.999,0.22433824733496013
865.116,0.2403465508235183
865.233,0.26429290130509436
865.351,0.27669738712101405
865.468,0.289408633459609
865.586,0.30483928709296826
865.703,0.3111438151767385
865.821,0.30727947932134236
865.938,0.2945240360587295
866.056,0.2902459445789991
866.173,0.283523664418598
866.29,0.27830982965094886
866.408,0.279189149458696
866.525,0.2839604933978854
866.643,0.29130590446484583
866.76,0.29185743581086354
866.878,0.28795537335892873
866.995,0.28229624105836426
867.112,0.27875907519590226
867.23,0.27864142330495534
867.347,0.2758074564632227
867.465,0.269614585591955
867.582,0.27211367517568336
867.699,0.27694006283769185
867.817,0.2793723577914829
867.934,0.28113732491469606
868.051,0.2951405525675422
868.169,0.3107511806204549
868.286,0.3230548560226728
868.404,0.3277717747078397
868.521,0.34420682166544214
868.638,0.3624100709099971
868.756,0.37905292338296004
868.873,0.3935713355426376
868.99,0.4207460931378523
869.108,0.45030133712777887
869.225,0.4856318427321035
869.342,0.5180085413680876
869.46,0.5578687124322382
869.577,0.5929642517907553
869.694,0.6208123968453059
869.812,0.6325115460353745
869.929,0.6476841205002355
870.046,0.6519099017989687
870.164,0.6491000865956835
870.281,0.6322461864973237
870.398,0.6164011135228269
870.516,0.5960536922335653
870.633,0.5781921918595893
870.75,0.5526788066876014
870.867,0.533428822601172
870.985,0.5121589194279333
871.102,0.48839535007036666
871.219,0.4617212665601594
871.337,0.4399708131326491
871.454,0.4159802657270546
871.571,0.398373553230843
871.688,0.37139518307314323
871.806,0.3525651392990046
871.923,0.33700679545420476
872.04,0.31955408168812593
872.157,0.2974183222008836
872.275,0.2794281590513272
872.392,0.25914656901364197
872.509,0.23776534145717335
872.626,0.21461158233218205
872.744,0.20162359480237863
872.861,0.19258020125165337
872.978,0.17568410940171908
873.095,0.16093348580412448
873.213,0.14981884025654574
873.33,0.1327446293934454
873.447,0.10933783550234205
873.564,0.0931886207918132
873.681,0.077325873757773
873.799,0.06768324184272281
873.916,0.05756406875137096
874.033,0.056653252610330294
874.15,0.055256193392289286
874.267,0.04734454909534421
874.385,0.04006223977790579
874.502,0.03826234742482915
874.619,0.029625787393413233
874.736,0.03044261834551988
874.853,0.03087134744536726
874.97,0.032190141751955045
875.088,0.03316208805304617
875.205,0.03565460676702704
875.322,0.038342891800050946
875.439,0.03520876766447455
875.556,0.029086805806027783
875.673,0.026121813276293294
875.791,0.023235941775376426
875.908,0.019168427373127513
876.025,0.020819876781772356
876.142,0.029238254971024703
876.259,0.03219027490112969
876.376,0.031093803680338802
876.493,0.029981452564180562
876.61,0.029082217269689428
876.728,0.03028959872857801
876.845,0.030915649523059516
876.962,0.02940859714504567
877.079,0.03202218128739699
877.196,0.03037251878441801
877.313,0.03207940278261219
877.43,0.03339600453563063
877.547,0.038105555358497446
877.664,0.039460797391628805
877.781,0.03731707939889117
877.898,0.035811662593567856
878.016,0.03784622638408813
878.133,0.036921418884878945
878.25,0.03530235362310393
878.367,0.03226640600830716
