wavelength_nm,intensity
792.446,0.2277859166205667
792.565,0.19187199388393067
792.684,0.16150220002375737
792.803,0.13667653504004673
792.922,0.11739499893279867
793.041,0.09390564323960182
793.16,0.08996950532763126
793.279,0.09645448314960811
793.398,0.11299364859509436
793.518,0.13211739370160364
793.637,0.1548145182472641
793.756,0.17142516319478374
793.875,0.18751281645242587
793.994,0.18726144687027524
794.113,0.18133520048919244
794.232,0.16737108410445808
794.351,0.16047688613334024
794.47,0.15332178797980062
794.589,0.14406757511654797
794.708,0.1401064193788658
794.827,0.14479845302483912
794.946,0.14772375164555446
795.066,0.14666108971532513
795.185,0.15359638840011214
795.304,0.16018620282507123
795.423,0.1581520153297052
795.542,0.1490455267706548
795.661,0.1386518115124869
795.78,0.1339240381154969
795.899,0.1264532388279766
796.018,0.1181330247912932
796.137,0.11221216686201571
796.256,0.1069246784163209
796.375,0.10612264786122651
796.494,0.10031579068342872
796.613,0.09334768275558344
796.732,0.0935238915397062
796.851,0.09033944155014292
796.97,0.09024834849609886
797.089,0.08187394997948386
797.208,0.09573989912280406
797.327,0.1166457279159186
797.446,0.12656524287220927
797.565,0.14061269907092655
797.684,0.14440284672785628
797.803,0.14689921539798206
797.922,0.14636247053182552
798.041,0.13487566161667483
798.16,0.13316188761703554
798.279,0.12980170242056116
798.398,0.12491304720560661
798.517,0.1251673421619524
798.636,0.12514286706036806
798.755,0.1323634351523819
798.874,0.1375831728499786
798.993,0.13543813918807113
799.112,0.13318826892318142
799.231,0.13719762038634647
799.35,0.13032362200241504
799.469,0.1285478991010131
799.588,0.1338968955647865
799.707,0.1314450957066523
799.826,0.13362576324279696
799.945,0.13279833506837085
800.064,0.13892169280417235
800.183,0.14841709604839784
800.302,0.14656334135727608
800.421,0.16013545886747094
800.54,0.17403816907457006
800.659,0.18321131889712836
800.778,0.19523530952578377
800.897,0.2028162534405488
801.016,0.2029615421562932
801.135,0.19523455504809667
801.254,0.19282623855369918
801.373,0.19702739334732008
801.492,0.2005381752838022
801.611,0.2040251307196066
801.729,0.2012677559902799
801.848,0.198127370262558
801.967,0.1767734117542184
802.086,0.15644161012495605
802.205,0.139961362330258
802.324,0.11846962772731423
802.443,0.09706282412284548
802.562,0.07743809489033364
802.681,0.06097628306197096
802.8,0.052759626201899806
802.919,0.043149088748489085
803.038,0.04172027688435828
803.157,0.042797439027857986
803.276,0.035960840865626814
803.394,0.031824039820212584
803.513,0.027874762801727227
803.632,0.023302733167818196
803.751,0.02128747185670591
803.87,0.022128485762922367
803.989,0.022332411547394272
804.108,0.027679697245627577
804.227,0.03209186758415654
804.346,0.03811667647292678
804.465,0.04257187160411685
804.583,0.04260552094418546
804.702,0.04981756568553011
804.821,0.052298836439201385
804.94,0.049758724682094885
805.059,0.05066153286876947
805.178,0.05354759754087142
805.297,0.05372771121637587
805.416,0.056567161404979444
805.535,0.05762628816208504
805.653,0.0654496243636892
805.772,0.0734168106365321
805.891,0.08112778664177145
806.01,0.09533498783783415
806.129,0.11750691650823593
806.248,0.1520453250850245
806.367,0.1827419494064708
806.485,0.20235559271850045
806.604,0.2184452965802854
806.723,0.23232330551665464
806.842,0.22988433112635806
806.961,0.2242299704695941
807.08,0.21858275776303343
807.198,0.21767940134142028
807.317,0.2052767800301898
807.436,0.19053260936484961
807.555,0.18099512476012275
807.674,0.17970637469004588
807.793,0.18088783707773867
807.912,0.19735578663778303
808.03,0.22403577438832706
808.149,0.25182429008290513
808.268,0.2765838618788192
808.387,0.29998591879861636
808.506,0.30816641576040893
808.624,0.3036122437724409
808.743,0.29002901935262526
808.862,0.27653871828545307
808.981,0.25914444508222534
809.1,0.243791507324567
809.219,0.23456078891606602
809.337,0.23339474532447935
809.456,0.22929625516197402
809.575,0.22476948364978544
809.694,0.2205161212328745
809.812,0.22471461426889175
809.931,0.23134519736159426
810.05,0.24664147875080827
810.169,0.26501554836507546
810.288,0.2777671594819019
810.406,0.28204844960777475
810.525,0.2841204274582996
810.644,0.2820519551535418
810.763,0.28824413063377274
810.882,0.2940431688528203
811.0,0.3039272606130744
811.119,0.31527251252739386
811.238,0.3250470023845302
811.357,0.33390357630305495
811.475,0.34278874202239296
811.594,0.3499327862047018
811.713,0.36227160319728524
811.832,0.3644782007766395
811.95,0.3607936960634106
812.069,0.3524463451675389
812.188,0.35116593437269894
812.307,0.3456146233313656
812.425,0.3353033731171272
812.544,0.32842075635042245
812.663,0.3224250810714483
812.782,0.31548587636563363
812.9,0.31045755701417754
813.019,0.3161779677809885
813.138,0.33367403084527925
813.257,0.3519379028939117
813.375,0.3706640090556934
813.494,0.37937404999505
813.613,0.38767784909785036
813.731,0.39174350939258906
813.85,0.39614810165946934
813.969,0.4050987902556715
814.088,0.41413048895417826
814.206,0.42170638846127223
814.325,0.43339057234773376
814.444,0.4376623318733356
814.562,0.44283592444959163
814.681,0.44516463284492014
814.8,0.4496520222016561
814.918,0.4479927700460399
815.037,0.4500301994705823
815.156,0.44852045860671924
815.274,0.45383224488690677
815.393,0.45252324229125407
815.512,0.4526063029977011
815.631,0.46627285174055483
815.749,0.4711104906572543
815.868,0.47431541861500826
815.987,0.4806011131103999
816.105,0.47335633353339324
816.224,0.4607577392540877
816.343,0.4376873979268946
816.461,0.42090248747850223
816.58,0.39981510667021836
816.698,0.3785514097569191
816.817,0.3679244584087014
816.936,0.3591976704895371
817.055,0.34971677382392097
817.173,0.3373570402139109
817.292,0.32685994329438683
817.41,0.32372523508429907
817.529,0.30709400556527855
817.648,0.30037698297828547
817.766,0.30417161682781546
817.885,0.3045125994041
818.004,0.3061896530058915
818.122,0.3057932053861986
818.241,0.3093352783285436
818.359,0.31967552107108155
818.478,0.3220218225949427
818.597,0.30810065192773717
818.715,0.32529138258308116
818.834,0.3354808119721408
818.953,0.4396551516135453
819.071,0.5552739196096528
819.19,0.7005285016292997
819.308,0.8208862264151047
819.427,0.8834845090848863
819.546,0.8448386535778847
819.664,0.7487663669012016
819.783,0.5948766466788767
819.901,0.4951051200889617
820.02,0.38298415784420126
820.138,0.32211223571558134
820.257,0.28305221948782
820.376,0.2648249722108858
820.494,0.2460082569171952
820.613,0.23611456612733606
820.731,0.23310852102090845
820.85,0.23961520631008754
820.969,0.2549508014254207
821.087,0.2752863877079874
821.206,0.3072141622328145
821.324,0.32273203007833234
821.443,0.32547889356055587
821.561,0.3251473731552091
821.68,0.30233852767295444
821.798,0.27451539512305934
821.917,0.24866450116676803
822.035,0.226643717194431
822.154,0.21854058793050662
822.273,0.20976078604733306
822.391,0.21659687270838152
822.51,0.22861045796671323
822.628,0.22811334338165568
822.747,0.23297123482393078
822.865,0.23882328700698668
822.984,0.2360173845062514
823.102,0.23095451672881268
823.221,0.23276678572194953
823.339,0.24038378594271237
823.458,0.24024823850544003
823.576,0.24154704640897062
823.695,0.24709233239579984
823.813,0.2529372366286523
823.932,0.25223044883763013
824.05,0.24859597977582482
824.169,0.24950462873075666
824.287,0.2488812336921067
824.406,0.2419843210249953
824.524,0.23901937663223588
824.643,0.2387164480277023
824.761,0.2310934227524355
824.88,0.22977905919412994
824.998,0.23078658812687497
825.117,0.23406001727407755
825.235,0.24005800677378505
825.354,0.2452578085007867
825.472,0.24725949817431225
825.591,0.24959297186977591
825.709,0.24392550663763843
825.828,0.23881855983394595
825.946,0.23446453045167165
826.064,0.22900614276298187
826.183,0.22965806117311083
826.301,0.2342336085823546
826.42,0.23009044373107893
826.538,0.23248765331585602
826.657,0.23616196333696265
826.775,0.23411314789526466
826.894,0.23031427597878312
827.012,0.22029490039784827
827.13,0.2186171827042069
827.249,0.2166523556773982
827.367,0.20736147535468685
827.486,0.20344883189746915
827.604,0.2083639069413717
827.723,0.2162013022934048
827.841,0.22590312132347473
827.959,0.23723705564997302
828.078,0.2613479509649349
828.196,0.28487747966335886
828.315,0.2943082722482191
828.433,0.2953449886442949
828.552,0.2852368593483357
828.67,0.2676001515007126
828.788,0.23809486157884685
828.907,0.20329999359590645
829.025,0.17763145984534964
829.143,0.15337843645509325
829.262,0.12692351221680429
829.38,0.11384527779994283
829.499,0.10529285192429183
829.617,0.10628335285507587
829.735,0.11353696515045295
829.854,0.12591810920329094
829.972,0.15644820013188487
830.091,0.1918577434711451
830.209,0.23763055116408746
830.327,0.3027647426791633
830.446,0.36037473711911705
830.564,0.40539414328591705
830.682,0.43462670576613177
830.801,0.4314182962485049
830.919,0.41072004390834804
831.037,0.3686672903357241
831.156,0.3176313503450573
831.274,0.2773262705971492
831.392,0.23423229894490605
831.511,0.213269572447226
831.629,0.20945418282483264
831.747,0.19973399067196662
831.866,0.2010168765321029
831.984,0.19915168599018648
832.102,0.20067045420703278
832.221,0.19596276213425634
832.339,0.1864867916133376
832.457,0.185634823012744
832.576,0.18550777569527205
832.694,0.1747380261875493
832.812,0.16949721616210717
832.93,0.16875127548952962
833.049,0.17352176538637684
833.167,0.16142447011122446
833.285,0.1606740246869637
833.404,0.1571504248496223
833.522,0.1613759161161423
833.64,0.16577918650618356
833.759,0.179474313918973
833.877,0.19509010755220602
833.995,0.21258409966697786
834.113,0.2221565619517425
834.232,0.24406042966229619
834.35,0.2524356102880022
834.468,0.26161612663661743
834.586,0.26395903295322454
834.705,0.27132992657536165
834.823,0.2649392290685255
834.941,0.2536051283335653
835.059,0.243004288156964
835.178,0.24662667755996787
835.296,0.24283664260211202
835.414,0.2419808412027257
835.532,0.24562110048123784
835.651,0.2596652012807059
835.769,0.2672100283577906
835.887,0.27866299720854953
836.005,0.29938745313555243
836.124,0.32406412986248334
836.242,0.33928942943305296
836.36,0.3530607167997606
836.478,0.36367975812679676
836.596,0.3773819486415386
836.715,0.3864963464507727
836.833,0.397352461459553
836.951,0.40957681326975504
837.069,0.41412605354912463
837.188,0.4183935454579794
837.306,0.4255482135864651
837.424,0.43232582734172464
837.542,0.43912131097249263
837.66,0.44437164603430623
837.779,0.45058218907343467
837.897,0.45391270384313553
838.015,0.4543244722798073
838.133,0.45106755527461695
838.251,0.45094799274617414
838.369,0.4465360861206279
838.487,0.43893381105432594
838.606,0.43810779278078676
838.724,0.4425855535581231
838.842,0.4429717085065664
838.96,0.441631037818387
839.078,0.4369725269108258
839.196,0.4411357778792154
839.315,0.4368948263960325
839.433,0.4319629063931938
839.551,0.42808233073276253
839.669,0.42758213985599247
839.787,0.4263570276961005
839.905,0.4211260851097556
840.023,0.41574980086927604
840.142,0.41413750807337
840.26,0.40955166799287607
840.378,0.4061940840223218
840.496,0.39846493283991047
840.614,0.39485180964958666
840.732,0.39081457474719794
840.85,0.38363700705547676
840.968,0.37917208646592154
841.087,0.3748364246425434
841.205,0.37732884225090224
841.323,0.3878323250496502
841.441,0.4014094264358329
841.559,0.4202158490582729
841.677,0.43562759099664505
841.795,0.44861558215356917
841.913,0.4705265978143247
842.031,0.4850871380159827
842.149,0.4968373424626956
842.267,0.5098860911963481
842.385,0.5220741075930153
842.504,0.5271606354626679
842.622,0.5250199900142307
842.74,0.523506577196136
842.858,0.525711885471327
842.976,0.5250246565642345
843.094,0.5132575091794539
843.212,0.5076328336694068
843.33,0.49958679002797945
843.448,0.49723944968616235
843.566,0.49448467618275493
843.684,0.5018317433042124
843.802,0.5090989916483998
843.92,0.5206609667397583
844.038,0.5250505694645857
844.156,0.533264921210715
844.274,0.5408675275519421
844.392,0.5494946734223141
844.51,0.549330436205099
844.628,0.5436396421556713
844.746,0.5290967074419282
844.864,0.5107135364814428
844.982,0.4858084566229301
845.1,0.46294173389740223
845.218,0.44369604361238124
845.336,0.41951826768705835
845.454,0.39679212131552977
845.572,0.37822846461241066
845.69,0.35914658151954953
845.808,0.3377999895372646
845.926,0.32188226573441353
846.044,0.3044694290140313
846.162,0.2897084818190867
846.28,0.27163922500503146
846.398,0.25079477652453086
846.516,0.23825743750534092
846.634,0.2186847284985174
846.752,0.19476785275561637
846.87,0.1775938767045293
846.988,0.15798185397158776
847.106,0.14375585426545706
847.224,0.12969971143382678
847.342,0.11814599196541137
847.46,0.1184623431372632
847.578,0.11377650102589643
847.696,0.11590136926722962
847.814,0.12431239583462311
847.932,0.1320041269054794
848.05,0.13246005397201294
848.168,0.1446627324053354
848.285,0.15653327250211124
848.403,0.16876953694179087
848.521,0.18221888676097892
848.639,0.19681429126276864
848.757,0.21253847623416858
848.875,0.21506218416755712
848.993,0.2146873982934927
849.111,0.22187871770965967
849.229,0.22028401500089256
849.347,0.21545903446273446
849.465,0.21327819983729404
849.582,0.20377667287860343
849.7,0.201144326065319
849.818,0.19787938565903937
849.936,0.19643836387964442
850.054,0.19844086711070674
850.172,0.20263481274160852
850.29,0.21346265182372332
850.408,0.21771616370631935
850.525,0.22184160814777223
850.643,0.23580203640649897
850.761,0.24747333361260726
850.879,0.25555099885398824
850.997,0.2605270493696383
851.115,0.26159138413651256
851.233,0.2728522698684459
851.35,0.2765911293364017
851.468,0.28769118618875983
851.586,0.3132223588391372
851.704,0.34182298043933024
851.822,0.3843055169969194
851.94,0.4267636313913138
852.057,0.48070850176246943
852.175,0.5362717871921638
852.293,0.5825075932690214
852.411,0.62474650385718
852.529,0.6624131089652712
852.647,0.6917880918374921
852.764,0.7253070988400974
852.882,0.7518908071579156
853.0,0.7716928977203188
853.118,0.7736822963760082
853.236,0.7621644517974597
853.353,0.744168777347138
853.471,0.7233198794406511
853.589,0.689376532424169
853.707,0.663422211084949
853.824,0.6444734766075157
853.942,0.621760750685509
854.06,0.5948611129318983
854.178,0.5582897028906567
854.296,0.5264645317844304
854.413,0.49480078522029614
854.531,0.45025643238974977
854.649,0.4066246345351627
854.767,0.3712052358016921
854.884,0.3304034305651094
855.002,0.28731845090107777
855.12,0.24747864062936092
855.238,0.21241306543095573
855.355,0.18169463528121296
855.473,0.15214152641030182
855.591,0.12449046268256647
855.708,0.10514494884018488
855.826,0.08072914791057385
855.944,0.06072897688933922
856.062,0.05345734028503259
856.179,0.04431642876882434
856.297,0.03567260912722119
856.415,0.030247395783289756
856.532,0.024475895521353354
856.65,0.02115243876247904
856.768,0.017261153197730604
856.886,0.01112040043177218
857.003,0.019646491157214507
857.121,0.026191593497320732
857.239,0.03476943344741554
857.356,0.04532737523901739
857.474,0.05076307809905765
857.592,0.05742360182053747
857.709,0.07087767602018864
857.827,0.08459299575793532
857.945,0.10570683999235694
858.062,0.13372492761751645
858.18,0.16627966009129633
858.298,0.18845843253190137
858.415,0.20914809633048853
858.533,0.22626497635244142
858.651,0.24634766004626196
858.768,0.2578784169843077
858.886,0.2662873066710465
859.003,0.27777160193277073
859.121,0.28018931802407987
859.239,0.26813839157880254
859.356,0.2511899279192059
859.474,0.2357824431909452
859.592,0.21777608290125486
859.709,0.20125887890392635
859.827,0.18645122633022904
859.944,0.17783608128268882
860.062,0.16896539701537938
860.18,0.15948237168065083
860.297,0.14925059856212292
860.415,0.1437382595653478
860.532,0.13515468463120595
860.65,0.13110410145101317
860.768,0.12410201049935927
860.885,0.13063992422037507
861.003,0.13559814094645342
861.12,0.142137245992503
861.238,0.1443053794892124
861.356,0.14571404327681747
861.473,0.14338432910807777
861.591,0.13758905041575398
861.708,0.13310542058574237
861.826,0.13584300744865135
861.943,0.1366077600554394
862.061,0.1357261014653923
862.178,0.13599943249570084
862.296,0.1332098668638797
862.414,0.13424624157839432
862.531,0.13538387892078965
862.649,0.13537963121820198
862.766,0.13520800234835284
862.884,0.13381466965625
863.001,0.1334381328805716
863.119,0.13530545680622377
863.236,0.13227405219252275
863.354,0.14086283195937882
863.471,0.14793743760816153
863.589,0.15730057864704583
863.706,0.1671968376385956
863.824,0.1752417775274812
863.941,0.17959420547382668
864.059,0.17812998894220727
864.176,0.1717003296693369
864.294,0.17049284368252066
864.411,0.1670724714452549
864.529,0.16244528694865917
864.646,0.16680664983275892
864.764,0.17615072967110096
864.881,0.1809868355812056
864.999,0.18747233100073007
865.116,0.1980130968356138
865.233,0.21372540464261114
865.351,0.23297058683760719
865.468,0.24176487017280857
865.586,0.2531050151054316
865.703,0.25993003815961374
865.821,0.2538142930331726
865.938,0.24270749167725197
866.056,0.23530273286414252
866.173,0.23249172338171045
866.29,0.2411907007142006
866.408,0.24251299343684782
866.525,0.24838197815133373
866.643,0.2534563490682155
866.76,0.25041124421662425
866.878,0.24488877895705996
866.995,0.24083760011434896
867.112,0.243634753228951
867.23,0.24761667908975601
867.347,0.24400748183461793
867.465,0.2457461426566093
867.582,0.25007414843975917
867.699,0.24706120936408277
867.817,0.25005969640941195
867.934,0.2538111008761591
868.051,0.2646091929183618
868.169,0.27590108918711165
868.286,0.2781794202494544
868.404,0.2907811783929655
868.521,0.29979943083453736
868.638,0.3173380399184861
868.756,0.3401607711902511
868.873,0.3643946269646582
868.99,0.39495560999405177
869.108,0.4265476848402765
869.225,0.46065822080814345
869.342,0.49027984404831515
869.46,0.5212857869778664
869.577,0.5519349280597677
869.694,0.5699613847450942
869.812,0.5768245302003603
869.929,0.5850416165566414
870.046,0.588463023989001
870.164,0.5884528196612422
870.281,0.5773382746926006
870.398,0.5714977256489872
870.516,0.5611283544890433
870.633,0.5415065574533974
870.75,0.5133137724614345
870.867,0.4884989896030648
870.985,0.4676483407949621
871.102,0.4428681063625753
871.219,0.4164635002464803
871.337,0.38945131836310193
871.454,0.3827774374582832
871.571,0.3636869713877524
871.688,0.34454766099083217
871.806,0.32494790346831376
871.923,0.3124401038725387
872.04,0.2949704355106143
872.157,0.27314468716227347
872.275,0.2510199162304264
872.392,0.24014601891863074
872.509,0.219290009147876
872.626,0.20249224810506555
872.744,0.18782993718550178
872.861,0.17441256092635238
872.978,0.1635380679520399
873.095,0.1487512635664347
873.213,0.13409848324714202
873.33,0.12060664917337449
873.447,0.10104135039783613
873.564,0.08716210724088135
873.681,0.07435546265350551
873.799,0.06019477817381394
873.916,0.048388485289823875
874.033,0.04090839111354795
874.15,0.04318465971177414
874.267,0.04468023115118969
874.385,0.043434633926922886
874.502,0.04569453708942008
874.619,0.048163292725105916
874.736,0.04233371224421762
874.853,0.03799729930956871
874.97,0.036672839201751524
875.088,0.034008961385567034
875.205,0.03039806893030103
875.322,0.02637157085242387
875.439,0.02666224488493156
875.556,0.0309772587402238
875.673,0.03010170802615708
875.791,0.02813766047078274
875.908,0.030566853534535678
876.025,0.02498045615587736
876.142,0.02694196906204427
876.259,0.029864766245326614
876.376,0.03274980624214672
876.493,0.03521388606483275
876.61,0.03450558851161431
876.728,0.029944504468820306
876.845,0.0337026593191942
876.962,0.026130907719709495
877.079,0.023489493495075037
877.196,0.022010754655700085
877.313,0.020895691608829054
877.43,0.027138697930808156
877.547,0.027703768819769558
877.664,0.030919422775873142
877.781,0.03405527341484304
877.898,0.031496021592289515
878.016,0.02962709043508778
878.133,0.031454767653119414
