wavelength_nm,intensity
792.446,0.25794950556542556
792.565,0.21934871179497353
792.684,0.18727103945529722
792.803,0.16171648854639667
792.922,0.1426850590682717
793.041,0.12659491697684772
793.16,0.11022156283670284
793.279,0.12121136687564311
793.398,0.13382816950901552
793.518,0.15478333993885235
793.637,0.18114391065762875
793.756,0.20706663722986646
793.875,0.21699670716365238
793.994,0.21630170311530775
794.113,0.19945016602049775
794.232,0.1814430901512331
794.351,0.16784302906977944
794.47,0.16257797421744624
794.589,0.16252586992361623
794.708,0.16497477173362401
794.827,0.1646024781502906
794.946,0.16120477395747612
795.066,0.16865316679965153
795.185,0.17444262615762807
795.304,0.17865214886398678
795.423,0.17550572183012636
795.542,0.17619904509479917
795.661,0.17058522763053968
795.78,0.16152244207147165
795.899,0.14880395202594732
796.018,0.14250773639088266
796.137,0.1313330461480296
796.256,0.12262154437639589
796.375,0.1174405287076594
796.494,0.11344292035708628
796.613,0.10427373036983642
796.732,0.10056995691882217
796.851,0.10776079456580448
796.97,0.111063278422038
797.089,0.11775315310557505
797.208,0.1441320761490889
797.327,0.16750174574986912
797.446,0.17319979143705738
797.565,0.18149380750554778
797.684,0.17906358335526332
797.803,0.18505408540136797
797.922,0.17453424943806511
798.041,0.16369002222607903
798.16,0.16337002197590744
798.279,0.15919010202313957
798.398,0.1536823629695439
798.517,0.1557650429784019
798.636,0.15925201774516082
798.755,0.17470869343159745
798.874,0.17583416713928907
798.993,0.17419559209848537
799.112,0.17169393464214383
799.231,0.17060245468655516
799.35,0.1610650367794983
799.469,0.15500516028967287
799.588,0.15107651749586004
799.707,0.152601177325637
799.826,0.14608412767704587
799.945,0.1406923626968144
800.064,0.14529369703806627
800.183,0.159496508105241
800.302,0.16245655719084928
800.421,0.17782078977533045
800.54,0.1853122316404731
800.659,0.20010247660098918
800.778,0.20852591301221943
800.897,0.21000687246652638
801.016,0.21253580054028412
801.135,0.2101173418757042
801.254,0.20433731586725626
801.373,0.2051493234201333
801.492,0.20333090452643365
801.611,0.21364522256858942
801.729,0.21901887700709524
801.848,0.21467255947080707
801.967,0.20214586780321614
802.086,0.18186151909781392
802.205,0.15947955236983807
802.324,0.13232511061643484
802.443,0.10756271118401042
802.562,0.09534110915446209
802.681,0.0846760973179195
802.8,0.07617092790185848
802.919,0.06364547687379968
803.038,0.058437311454717214
803.157,0.05055235059807711
803.276,0.04453397920510234
803.394,0.04396901178553608
803.513,0.048303926938648184
803.632,0.046900963676218585
803.751,0.0522813149783776
803.87,0.04908116125533393
803.989,0.05445834424491734
804.108,0.05297168689661101
804.227,0.05687105281042484
804.346,0.05671919344087725
804.465,0.05748928907027134
804.583,0.050828420191590486
804.702,0.058585249705253646
804.821,0.0619812163196536
804.94,0.05574855099475861
805.059,0.05442867331504965
805.178,0.04931235090337578
805.297,0.04938608112037601
805.416,0.049910232326295614
805.535,0.052115633205233394
805.653,0.060159210047604265
805.772,0.06730692184140455
805.891,0.06867150102341493
806.01,0.08382600130357651
806.129,0.10752912179781936
806.248,0.1493045369736268
806.367,0.18128533381336637
806.485,0.20921243065967526
806.604,0.22585685620432033
806.723,0.23525918583918698
806.842,0.23106229478443596
806.961,0.22320717806772084
807.08,0.21516297318791328
807.198,0.2129468856905367
807.317,0.20650614843375395
807.436,0.1939213064642164
807.555,0.1886655216961467
807.674,0.2001083227087409
807.793,0.20898540744612804
807.912,0.22518230507478765
808.03,0.25218664171398286
808.149,0.2777791200687536
808.268,0.3079987958723585
808.387,0.3205668815533128
808.506,0.33160461370097116
808.624,0.33372326729351187
808.743,0.3217056898132521
808.862,0.303305336338823
808.981,0.2829325832253795
809.1,0.261311848235525
809.219,0.24798073831564899
809.337,0.23173683029231146
809.456,0.21764348497721353
809.575,0.20622006452498287
809.694,0.20530070163050362
809.812,0.2090480346011491
809.931,0.21873609746024522
810.05,0.2381357283757758
810.169,0.25486963638761895
810.288,0.2667704509508161
810.406,0.2685302572293996
810.525,0.2632080815062893
810.644,0.2579548179137284
810.763,0.2628022237976547
810.882,0.2741567836674734
811.0,0.28087826334560606
811.119,0.29476912577637304
811.238,0.3107878603358083
811.357,0.3242165072567933
811.475,0.33012532802954564
811.594,0.3379149457311923
811.713,0.35227894876560856
811.832,0.3632233974194751
811.95,0.36630093809685477
812.069,0.3685717026117062
812.188,0.3678103333823889
812.307,0.36728007190796264
812.425,0.36902307034982723
812.544,0.3713030791748747
812.663,0.3773530857760701
812.782,0.38976990092655117
812.9,0.4050381655764682
813.019,0.4230679577993727
813.138,0.4425625529923676
813.257,0.4622680865361901
813.375,0.4819021867739557
813.494,0.48748577590618924
813.613,0.4846040980747273
813.731,0.47514635412682377
813.85,0.46880226193117813
813.969,0.46740891804121387
814.088,0.4622724689138526
814.206,0.4622750158634293
814.325,0.45999001623550384
814.444,0.45213826108613303
814.562,0.4407829123726157
814.681,0.4358725286491293
814.8,0.442414164474365
814.918,0.4389635413699533
815.037,0.43978126840041776
815.156,0.4481952972361877
815.274,0.44594559406537254
815.393,0.4467759269733763
815.512,0.44686167271471333
815.631,0.4444304449073293
815.749,0.4499350372069817
815.868,0.44724748988962787
815.987,0.45618340205553354
816.105,0.45483627971654705
816.224,0.4507679686126994
816.343,0.4491208263882726
816.461,0.4323945334510902
816.58,0.4093510150829438
816.698,0.3921339333135565
816.817,0.3808012751796101
816.936,0.36610873048546744
817.055,0.35840908625840595
817.173,0.3454099311137365
817.292,0.34072981475330444
817.41,0.33066866946717577
817.529,0.319793184491995
817.648,0.31490633173991484
817.766,0.31399957472297424
817.885,0.3039619604082521
818.004,0.31426603048311064
818.122,0.31263317491989406
818.241,0.3270131453991926
818.359,0.3298789073339077
818.478,0.3443008245203924
818.597,0.344329037715432
818.715,0.364526280104742
818.834,0.3783952976369475
818.953,0.4849388756736768
819.071,0.6089206978157764
819.19,0.7336282307418696
819.308,0.8160507057871785
819.427,0.8394755900671489
819.546,0.77631965175162
819.664,0.6846630977104806
819.783,0.5456769782473904
819.901,0.4655557798318327
820.02,0.38598768370233216
820.138,0.33225156074142237
820.257,0.29383911583354816
820.376,0.2569930019514799
820.494,0.23728331799661445
820.613,0.23052743380134424
820.731,0.22223699411359832
820.85,0.23116534275298006
820.969,0.2415954716032349
821.087,0.25753520933008944
821.206,0.2805434827892624
821.324,0.29335192053530423
821.443,0.2942847812472965
821.561,0.2830168332847202
821.68,0.26315083644836557
821.798,0.2440092573746145
821.917,0.2209472503860775
822.035,0.20141572950043765
822.154,0.19791888484504783
822.273,0.18958810634917594
822.391,0.18910070485838393
822.51,0.1964600419400156
822.628,0.20088725190595833
822.747,0.21388813938243628
822.865,0.22709072089954613
822.984,0.2321095667180092
823.102,0.23199361841871385
823.221,0.22842702124093794
823.339,0.2378461587125239
823.458,0.25014447861413264
823.576,0.2508067331549427
823.695,0.26465053364289504
823.813,0.2719560856470242
823.932,0.2646665526359149
824.05,0.25502392248409805
824.169,0.2562097411387158
824.287,0.25089596933396485
824.406,0.24892191468534675
824.524,0.24049617191201003
824.643,0.24253162671279044
824.761,0.24359306737568487
824.88,0.23683718318041458
824.998,0.23759608278236127
825.117,0.23744231685044795
825.235,0.23090829609987343
825.354,0.22876196112488276
825.472,0.2303940278443996
825.591,0.2345002081290034
825.709,0.24076871660755012
825.828,0.24273357849410981
825.946,0.24372106467543994
826.064,0.23708199494536958
826.183,0.2365987954137574
826.301,0.2360744166821827
826.42,0.23905111033924642
826.538,0.23383650477113987
826.657,0.23592994660860223
826.775,0.23782589636461232
826.894,0.23826796824439975
827.012,0.23006156774025094
827.13,0.2245637501234239
827.249,0.2260638753246939
827.367,0.22792032666441392
827.486,0.22862712197253116
827.604,0.23476452932466704
827.723,0.24525768756261979
827.841,0.25895862143845855
827.959,0.2722317958697901
828.078,0.2905330346557121
828.196,0.3096830691959607
828.315,0.32726325178662297
828.433,0.3278145746050863
828.552,0.3180349605840075
828.67,0.2995312389137556
828.788,0.26804178259414196
828.907,0.2419283128492093
829.025,0.21670457464259613
829.143,0.1964707202020816
829.262,0.1733821427308025
829.38,0.15009648598839437
829.499,0.13498328569100404
829.617,0.12479439641779622
829.735,0.123776165532576
829.854,0.14655281757299116
829.972,0.17545555877930857
830.091,0.22235204999191305
830.209,0.2685903631412246
830.327,0.32868380211503545
830.446,0.3808748019809492
830.564,0.4263098918775242
830.682,0.4598475545523148
830.801,0.4783682555102113
830.919,0.46191184825516185
831.037,0.42818875033833487
831.156,0.37247007689874384
831.274,0.3251284292800717
831.392,0.26631123114127037
831.511,0.232315005877754
831.629,0.2069327969328993
831.747,0.19978793122036392
831.866,0.18597431418297855
831.984,0.1817379639125742
832.102,0.17445372196743258
832.221,0.17079315184256938
832.339,0.16328954977578786
832.457,0.1667882598490751
832.576,0.16108068687365895
832.694,0.1648671818734632
832.812,0.15970727171931376
832.93,0.16038127228522236
833.049,0.1590431667542637
833.167,0.14912823220506344
833.285,0.14145021536739152
833.404,0.13118635480848667
833.522,0.13125832764269182
833.64,0.1367685478170035
833.759,0.14294757415998305
833.877,0.165094090476709
833.995,0.18122510533709763
834.113,0.18970765263035144
834.232,0.20056728092835804
834.35,0.21231856496432555
834.468,0.22504974588103038
834.586,0.2353135363673359
834.705,0.24288303062753136
834.823,0.2530005929343786
834.941,0.25074086428110415
835.059,0.24260847747809255
835.178,0.22680667478004624
835.296,0.21848351903027002
835.414,0.21286726538414352
835.532,0.2189047253273712
835.651,0.24026841118312886
835.769,0.25885880398019545
835.887,0.2796947237629661
836.005,0.29504960799156027
836.124,0.3056193011061583
836.242,0.3229373406635714
836.36,0.3319707975020219
836.478,0.3442448052599611
836.596,0.3667119255963438
836.715,0.3692390688407379
836.833,0.3746116540851848
836.951,0.37978823929823147
837.069,0.3930351710938767
837.188,0.3997698122834441
837.306,0.41669411021494157
837.424,0.43938172108833096
837.542,0.4550292752826554
837.66,0.4612584639021283
837.779,0.4752578211677823
837.897,0.4771157351221249
838.015,0.4794548718823539
838.133,0.46554395081523336
838.251,0.47011912896387864
838.369,0.4760196050378438
838.487,0.47487591674273355
838.606,0.4778619139295651
838.724,0.482547183408722
838.842,0.47856801305905916
838.96,0.47062135285179607
839.078,0.4500091472846745
839.196,0.44889067074464317
839.315,0.4478621161310602
839.433,0.4454670843921949
839.551,0.4478303512285745
839.669,0.45173741786762556
839.787,0.45169800444497565
839.905,0.45144008914497413
840.023,0.4500888240663796
840.142,0.45670363320091634
840.26,0.4434423350229977
840.378,0.4321643615779614
840.496,0.4222629499602389
840.614,0.41125138072720413
840.732,0.39974902266196455
840.85,0.38921983834277485
840.968,0.39060909104126906
841.087,0.398447510688974
841.205,0.40640778715289405
841.323,0.42155173303065985
841.441,0.440000099607448
841.559,0.44481142786199973
841.677,0.453148199868433
841.795,0.45698803516060704
841.913,0.4680636441604568
842.031,0.4800409936002993
842.149,0.5019274031780286
842.267,0.5104742731434542
842.385,0.5283864697288958
842.504,0.5276545734334098
842.622,0.5324717844308138
842.74,0.5359368049641468
842.858,0.5409422637328072
842.976,0.5423735360231001
843.094,0.5432551920526707
843.212,0.5358404998775752
843.33,0.5414065000008256
843.448,0.5400922121630138
843.566,0.544437122948604
843.684,0.5527915431835924
843.802,0.5614720354509357
843.92,0.5649051210945013
844.038,0.5762521766573682
844.156,0.5843183424926198
844.274,0.5915617647204598
844.392,0.5992606793233941
844.51,0.6040509977820465
844.628,0.5978826066996892
844.746,0.5811630961167662
844.864,0.5544336783756405
844.982,0.5331264687601737
845.1,0.5017984268926364
845.218,0.47696829470079594
845.336,0.4466033418772768
845.454,0.4268054759992067
845.572,0.40203080966853993
845.69,0.378763806291598
845.808,0.36016433917161683
845.926,0.35038058241092934
846.044,0.3375453628938458
846.162,0.3262194871141589
846.28,0.29396617383522217
846.398,0.27118407654763355
846.516,0.24683632926963855
846.634,0.2267300395877691
846.752,0.21229219283949718
846.87,0.19510880661655394
846.988,0.18419753102708925
847.106,0.1675834268454767
847.224,0.150762580710633
847.342,0.14520626395565642
847.46,0.14717499688409424
847.578,0.14891047194287005
847.696,0.14504017570638525
847.814,0.1512853515369798
847.932,0.16409451367311848
848.05,0.17117251214086193
848.168,0.18500974642617898
848.285,0.20603966612820693
848.403,0.2179886541117712
848.521,0.2302746392215583
848.639,0.23779728340508452
848.757,0.2577459612752185
848.875,0.26537113326273265
848.993,0.2692565615801937
849.111,0.2710872318587154
849.229,0.27742744472903585
849.347,0.27855722821636103
849.465,0.27920378639800525
849.582,0.27610387777490863
849.7,0.28123812836061646
849.818,0.2803913102497473
849.936,0.2796898799265003
850.054,0.28339714517473624
850.172,0.2941973175185334
850.29,0.3051622066621801
850.408,0.3022446630674881
850.525,0.30060787663080973
850.643,0.306955653027654
850.761,0.3130092922819097
850.879,0.31868475520998046
850.997,0.3295849341822582
851.115,0.34145492533324184
851.233,0.3440327039539385
851.35,0.3465230818236946
851.468,0.35774849243649137
851.586,0.37833838927746827
851.704,0.4056673882510643
851.822,0.4476519804520885
851.94,0.4977219825069512
852.057,0.5459288358614751
852.175,0.5927355964172782
852.293,0.6473596818312463
852.411,0.694596723007064
852.529,0.7371821953708046
852.647,0.7716175477093372
852.764,0.802614016655093
852.882,0.8242014586053625
853.0,0.836400883356045
853.118,0.8412888991338148
853.236,0.8437406189791161
853.353,0.8325670659878845
853.471,0.8155519493448466
853.589,0.789572372987549
853.707,0.7516197341432296
853.824,0.7135284306459757
853.942,0.6849915419318302
854.06,0.6490583646693391
854.178,0.6198155468129809
854.296,0.5874061325186992
854.413,0.547943309545147
854.531,0.5015085959004127
854.649,0.44481269793852174
854.767,0.393710448036827
854.884,0.35768062571320003
855.002,0.31981034526880514
855.12,0.28594873388197284
855.238,0.2555873544919428
855.355,0.22262748354510287
855.473,0.18868853871712854
855.591,0.15861626869082127
855.708,0.13082259733644439
855.826,0.10647024178776726
855.944,0.08459294925921731
856.062,0.06381227729453606
856.179,0.04438035103120157
856.297,0.03110842342938998
856.415,0.022045506212912173
856.532,0.02348442518743539
856.65,0.015876742620850468
856.768,0.015192334460036344
856.886,0.015175648887614367
857.003,0.026160913299912488
857.121,0.02945785934417231
857.239,0.039561987963442624
857.356,0.050985528738682846
857.474,0.06435756459887601
857.592,0.0684297805682896
857.709,0.09066156181704049
857.827,0.11031453785913031
857.945,0.1322740650366256
858.062,0.15599036919407117
858.18,0.18171849740716428
858.298,0.20128586534491302
858.415,0.2249688282282557
858.533,0.23922847745490067
858.651,0.2610945131888829
858.768,0.27472134736304477
858.886,0.28738593288502445
859.003,0.3043911422397737
859.121,0.30771225132947244
859.239,0.30399507879294774
859.356,0.2871602300888143
859.474,0.2691538751653431
859.592,0.25111474496026925
859.709,0.2334563122568884
859.827,0.21742487814793957
859.944,0.19607796567649963
860.062,0.1807381740485517
860.18,0.16921039978854996
860.297,0.149281228344386
860.415,0.14866930364175912
860.532,0.15361236897487385
860.65,0.1607404530815027
860.768,0.1636186756736465
860.885,0.1633479500564221
861.003,0.17270139174469173
861.12,0.17667044293992085
861.238,0.1774653341707027
861.356,0.17146733819136328
861.473,0.16555422178745668
861.591,0.15995541193020157
861.708,0.15038659103983845
861.826,0.15227147048186923
861.943,0.16021221349387801
862.061,0.16387452166897892
862.178,0.16332730713772114
862.296,0.15408119671236925
862.414,0.15745609087956952
862.531,0.16003765515361684
862.649,0.1523899700002741
862.766,0.15972058853937082
862.884,0.16413168584031823
863.001,0.15974724218603525
863.119,0.15800583085586845
863.236,0.15736281165531057
863.354,0.16966266712048025
863.471,0.1667850460280862
863.589,0.169309463657288
863.706,0.17758384222817586
863.824,0.18506573129774673
863.941,0.19187782807405182
864.059,0.20497941735073377
864.176,0.20598272575683485
864.294,0.20990975736026513
864.411,0.20323272477746393
864.529,0.19945672481242072
864.646,0.19435962888123737
864.764,0.19261569637556225
864.881,0.20102285685653234
864.999,0.20734164362512436
865.116,0.21853890500150458
865.233,0.23981918762581675
865.351,0.25925396977834525
865.468,0.2696612628289164
865.586,0.27958785174931433
865.703,0.2852343250491322
865.821,0.2852636193173467
865.938,0.27879584430170024
866.056,0.27799903339515886
866.173,0.2770417076479479
866.29,0.2737237212335056
866.408,0.273497536383586
866.525,0.2730789018032299
866.643,0.2791144765231003
866.76,0.2826524067064767
866.878,0.28004875335260637
866.995,0.27396671818966883
867.112,0.26526518167402235
867.23,0.2605580275547271
867.347,0.2562517403411882
867.465,0.25642474161335327
867.582,0.26501678829823555
867.699,0.277546070734623
867.817,0.28114198795468137
867.934,0.28377901808990125
868.051,0.2899818307851292
868.169,0.3033868015145942
868.286,0.30525487311990435
868.404,0.3100870067306701
868.521,0.32013377168361085
868.638,0.3405618969862518
868.756,0.3601269398733545
868.873,0.3827089894515786
868.99,0.41252345117013456
869.108,0.4387906189490739
869.225,0.4598490381286898
869.342,0.47789969492738
869.46,0.5087318711592923
869.577,0.5425373537068556
869.694,0.5640848809350046
869.812,0.579333671352581
869.929,0.5880837117026246
870.046,0.593957931189989
870.164,0.5881414598472166
870.281,0.5719343838445483
870.398,0.5641102164056508
870.516,0.5540388411973776
870.633,0.5318313674859049
870.75,0.5121543135925286
870.867,0.489636735293584
870.985,0.48420432301984817
871.102,0.46279438116070803
871.219,0.4398540857682721
871.337,0.4193223533777174
871.454,0.4006773006589086
871.571,0.3779311357805807
871.688,0.35819021210767055
871.806,0.334659961646385
871.923,0.3150341716550021
872.04,0.2904265388600068
872.157,0.2593487293199016
872.275,0.23447553270474064
872.392,0.21248319930327472
872.509,0.20538849197799552
872.626,0.19725421995162537
872.744,0.18884009744387814
872.861,0.1762609929970787
872.978,0.16314403777526038
873.095,0.14337370038809139
873.213,0.13500832060683035
873.33,0.1188012438164264
873.447,0.11488713919709209
873.564,0.10654757415429855
873.681,0.08974414046817641
873.799,0.07459209268066523
873.916,0.062263078873527965
874.033,0.05695914381426183
874.15,0.056626852021177065
874.267,0.04954788785034503
874.385,0.055578516438144585
874.502,0.06254286606464939
874.619,0.05783295100145214
874.736,0.05993913201570891
874.853,0.06084650712955732
874.97,0.055777117278868735
875.088,0.049273847929848624
875.205,0.04724798516378676
875.322,0.04688852447619565
875.439,0.04956494165026754
875.556,0.048008776060100525
875.673,0.05120903559535494
875.791,0.04761006138527899
875.908,0.04426848631851456
876.025,0.043118140708112145
876.142,0.045915101407222554
876.259,0.04345050497564014
876.376,0.05043552204244847
876.493,0.046947852435119376
876.61,0.04947682630558455
876.728,0.051955909374721373
876.845,0.05327892628978141
876.962,0.057421683970201615
877.079,0.05832057833758479
877.196,0.05894722151389606
877.313,0.06042406024656168
877.43,0.05328372979637311
877.547,0.05395977066687812
877.664,0.054790807898082994
877.781,0.05460050936759816
877.898,0.054770089391082785
878.016,0.052629774803842164
878.133,0.046494188031681496
878.25,0.04735814121707463
