wavelength_nm,intensity
792.446,236.73982161679973
792.565,194.99012464710273
792.684,159.03176966874776
792.803,128.86475668173472
792.922,104.48908568606359
793.041,74.24060083757868
793.16,66.57047096744878
793.279,72.75834975532756
793.398,89.51765711463491
793.518,112.00423720121499
793.637,141.38605538303318
793.756,176.00510300208072
793.875,191.41809001506772
793.994,186.94969174666937
794.113,174.67956187653948
794.232,147.37566577264343
794.351,129.9462285432063
794.47,114.9488259458038
794.589,105.34363114060906
794.708,108.02155321853117
794.827,112.82415062112852
794.946,124.2553194522973
795.066,134.81895581593366
795.185,137.7947133916912
795.304,143.2977436947215
795.423,135.5393021362799
795.542,127.8250164219942
795.661,115.60683460381242
795.78,107.22501642199427
795.899,93.68302508000302
796.018,84.25618525316327
796.137,78.01895581593382
796.256,74.97739737437536
796.375,69.19731079428871
796.494,75.14536274234064
796.613,69.10192788017122
796.732,68.38037888571074
796.851,60.68371232235404
796.97,64.3201330545449
797.089,67.73811918284105
797.208,81.00520992270205
797.327,97.68765928414288
797.446,115.96299018428824
797.565,125.45289488027262
797.684,136.39041862387597
797.803,139.9746956142325
797.922,134.41871286432934
798.041,118.67658292827903
798.16,114.572548230324
798.279,104.18193344578881
798.398,94.86144853138352
798.517,97.76347443948883
798.636,103.97718865928255
798.755,103.4497773379507
798.874,105.75613225038515
798.993,107.17071227104466
799.112,111.56624467265652
799.231,111.24922296171431
799.35,105.84042635899732
799.469,110.65500637965698
799.588,105.69469462542494
799.707,98.88416642097647
799.826,95.6104347533245
799.945,94.58259053155989
800.064,99.7963047513538
800.183,111.34335230448114
800.302,118.7648587320675
800.421,138.2062785795673
800.54,152.15592353529235
800.659,172.34106632651526
800.778,179.5054298969589
800.897,180.83862463623342
801.016,173.81337781706645
801.135,163.59159420136268
801.254,159.13258114842932
801.373,157.41815684008478
801.492,154.39464162264943
801.611,165.39710043118828
801.729,167.51297915314706
801.848,162.63145527770314
801.967,149.57330802563595
802.086,130.9610482194562
802.205,108.19306729300217
802.324,81.40513125445771
802.443,51.271496873300514
802.562,34.45233785767755
802.681,18.83935858010109
802.8,8.596737053269841
802.919,-0.6822608565874484
803.038,-7.273109691027873
803.157,-20.650117697234457
803.276,-25.21147347826412
803.394,-25.71813412869536
803.513,-19.98617975570714
803.632,-21.365202230413104
803.751,-23.097034246751175
803.87,-21.654257789218683
803.989,-22.980885950899022
804.108,-27.47039073242354
804.227,-21.31409002813252
804.346,-16.60917499416322
804.465,-4.231901652850641
804.583,-2.133162849450428
804.702,1.8235218529839203
804.821,8.151966307244667
804.94,0.9508536596120045
805.059,-7.608364487183149
805.178,-8.794666350313005
805.297,-12.864670524853617
805.416,-1.938422812917646
805.535,9.07019927738401
805.653,14.980662173035059
805.772,30.214720595625987
805.891,41.203645271362845
806.01,59.945875407984
806.129,89.29789635841709
806.248,125.84315103229464
806.367,157.24459423031666
806.485,185.73700240526222
806.604,199.80706765318047
806.723,209.06760909157506
806.842,213.2805314823507
806.961,210.01466599433854
807.08,200.54880050632647
807.198,197.44051077589012
807.317,185.7244288376617
807.436,175.2325893236756
807.555,169.92949439843392
807.674,162.8549709017637
807.793,175.0808803055263
807.912,188.2964000988992
808.03,222.43746101781306
808.149,268.70752626573125
808.268,307.5914443275023
808.387,329.311726025637
808.506,330.41122850299223
808.624,322.88648855610535
808.743,302.25092609839584
808.862,269.3460995714224
808.981,252.13477953795558
809.1,236.25592703695634
809.219,229.01343817232075
809.337,221.8748454115813
809.456,211.1587634733527
809.575,215.07558196802466
809.694,208.02876409906028
809.812,201.6157124638624
809.931,206.5290677550716
810.05,211.889176293034
810.169,227.31248829419985
810.288,236.81025916982452
810.406,250.95651489393387
810.525,259.68805200332434
810.644,259.72781422094
810.763,262.5485288195081
810.882,275.45149450032744
811.0,288.2090056356924
811.119,299.5284215329621
811.238,318.860824443219
811.357,339.04171220196065
811.475,342.9775783156806
811.594,342.9835742995306
811.713,350.52290361671396
811.832,358.96872644039104
811.95,362.6387916883105
812.069,356.3261729535462
812.188,367.7737273789552
812.307,372.9857839688662
812.425,374.3519531128899
812.544,381.50340364219505
812.663,395.19944291608886
812.782,405.17859907309946
812.9,416.6400063123611
813.019,432.16201961222873
813.138,460.7117385398019
813.257,480.35756136347896
813.375,502.8856352694072
813.494,516.033622595249
813.613,524.4595319990129
813.731,513.0776491949847
813.85,503.4905715857617
813.969,497.98141605446085
814.088,498.6947713456709
814.206,494.29990152865616
814.325,495.74572435233415
814.444,492.80366838813336
814.562,490.7784955408158
814.681,480.5152274554032
814.8,471.0129983310294
814.918,468.78263067851714
815.037,473.5332154069573
815.156,476.2361810877784
815.274,476.48286971232267
815.393,480.0594284667372
815.512,481.1926971778618
815.631,488.72942909244983
815.749,487.8349921758688
815.868,489.3215076402401
815.987,496.0668975634858
816.105,492.04172471616863
816.224,484.84339169569137
816.343,467.0926777228329
816.461,442.5194529274635
816.58,421.68995107581713
816.698,393.9452977090191
816.817,371.98159672317337
816.936,374.06638058581257
817.055,366.17194366923104
817.173,362.3779396530823
817.292,354.17181442481206
817.41,354.3007541316066
817.529,340.6833734920807
817.648,318.18720497376677
817.766,309.55856892298505
817.885,309.32646966874006
818.004,301.4545435746683
818.122,305.2752581732374
818.241,316.7228125986463
818.359,336.64591901476933
818.478,342.62850048934513
818.597,324.2900096570123
818.715,342.48128689973817
818.834,354.79474506083193
818.953,470.65477291255365
819.071,603.5520259386872
819.19,757.5386304928882
819.308,909.9008831059243
819.427,1004.1648722104353
819.546,1003.9646718405895
819.664,913.2260626417062
819.783,738.5661657532235
819.901,612.3718085334624
820.02,445.49853801596885
820.138,326.8166737357335
820.257,265.53696899381464
820.376,232.54866356098503
820.494,222.16920382427128
820.613,208.82455045747196
820.731,210.94396635474197
820.85,225.9828627714926
820.969,240.3334474999316
821.087,269.7100062543445
821.206,305.02249574468806
821.324,314.2865003865468
821.443,313.4137084916089
821.561,304.7634274191819
821.68,281.59712903073785
821.798,248.75464016610343
821.917,216.97834179662033
822.035,192.68614150067287
822.154,215.22509407357597
822.273,240.14166775191708
822.391,263.6626992852877
822.51,272.5613488468484
822.628,262.5198675188501
822.747,244.6187747818123
822.865,217.02863340629784
822.984,192.14079769264117
823.102,203.62913495423257
823.221,218.66988201559303
823.339,221.27674380030828
823.458,229.45503415645206
823.576,233.07228555155694
823.695,243.4635629206877
823.813,246.47475370973194
823.932,246.58031679314846
824.05,243.4858798765649
824.169,240.6806204491587
824.287,231.57059911699062
824.406,228.1965085207533
824.524,221.6890845911827
824.643,215.04659572654722
824.761,209.94523240303738
824.88,216.0767695124281
824.998,223.45852307203546
825.117,232.45586104722727
825.235,239.9588267280468
825.354,239.74144608851992
825.472,233.08856761349506
825.591,225.25387095665207
825.709,217.88151196214676
825.828,216.40265946114823
825.946,211.9852788216216
826.064,212.41118822538505
826.183,203.6301712222221
826.301,205.1227472926521
826.42,210.88372163148043
826.538,222.24815917377185
826.657,226.41692572039236
826.775,227.4315797129003
826.894,224.0012120603866
827.012,218.9085067455352
827.13,204.03138584626805
827.249,200.936083128819
827.367,195.01826958885903
827.486,201.54461189305482
827.604,206.83459056088714
827.723,218.85876836291862
827.841,240.76259984460404
827.959,260.98591184577026
828.078,286.3901762278887
828.196,307.99184320740983
828.315,314.58571797913896
828.433,322.2280775993529
828.552,306.70766665679605
828.67,278.8790306060143
828.788,245.45299195783002
828.907,210.57500525769797
829.025,177.40813864685794
829.143,147.06236934294196
829.262,119.35955888954047
829.38,107.49675505053618
829.499,102.70457093184858
829.617,95.94203876909802
829.735,104.76468572204416
829.854,127.05084614973003
829.972,155.55577416459437
830.091,189.4304362770098
830.209,235.2784932339378
830.327,295.38725153634823
830.446,366.5144478619899
830.564,415.1235109623082
830.682,458.0295437595963
830.801,477.1269185482265
830.919,468.4208301333936
831.037,422.0861702899893
831.156,361.52726802234275
831.274,297.1813527676832
831.392,240.7220175996037
831.511,199.1085698774114
831.629,183.30118276127934
831.747,183.62972638107775
831.866,186.46909251169853
831.984,189.9439564778171
832.102,191.66903689415227
832.221,177.3021042409148
832.339,151.07261768290607
832.457,136.6984101566731
832.576,123.22557341044204
832.694,119.22066579632639
832.812,117.44517114478566
832.93,128.7542000633265
833.049,135.00477231196362
833.167,131.6680179941793
833.285,116.22146170765939
833.404,118.20075849521172
833.522,113.77189334353153
833.64,118.4995215787992
833.759,124.79372211343355
833.877,146.3602138963078
833.995,165.70944682184145
834.113,180.36124549493957
834.232,188.0332235583374
834.35,204.88182499835864
834.468,208.85943076738428
834.586,222.57469887407217
834.705,224.35923105002414
834.823,229.5290446112572
834.941,229.18716986080184
835.059,221.83490549995676
835.178,219.20298745945814
835.296,213.0645759124659
835.414,206.685471724781
835.532,216.56870519943396
835.651,220.49869192084037
835.769,221.41396002752816
835.887,240.9223017272895
836.005,266.1397343361417
836.124,294.6359548237819
836.242,315.148625527872
836.36,324.9400841107498
836.478,337.9869539490388
836.596,350.20352075702476
836.715,349.66770661262956
836.833,362.85656779290946
836.951,384.61945494721556
837.069,404.3364546556343
837.188,428.1963115069103
837.306,439.6830081850264
837.424,451.3229516163892
837.542,465.39406387892103
837.66,465.455652331929
837.779,474.54667801437427
837.897,482.24463010374586
838.015,486.08543933597457
838.133,486.7522225941771
838.251,487.2960621294359
838.369,488.44423066902345
838.487,489.905819122031
838.606,488.41935562698666
838.724,497.98743758648794
838.842,497.2291126195822
838.96,491.9365885184774
839.078,477.8709042442124
839.196,474.9221030868306
839.315,475.56118071732755
839.433,467.97688172444816
839.551,466.4791628181491
839.669,471.6048205352266
839.787,472.05515357697936
839.905,466.3279974412429
840.023,455.25798416264934
840.142,450.73515703124167
840.26,447.8434987310029
840.378,433.9016239805476
840.496,429.186589056932
840.614,422.899259761022
840.732,416.2067356599173
840.85,409.85620290080385
840.968,405.83900347502384
841.087,411.11011573755536
841.205,419.9639119827709
841.323,425.24627965655776
841.441,436.24639624809345
841.559,444.89153448465083
841.677,450.84316622770183
841.795,463.0268326027874
841.913,479.6572522246263
842.031,501.05650301529636
842.149,522.2999096501223
842.267,540.0766496182817
842.385,554.9313116643633
842.504,564.8829434074149
842.622,570.8137959296873
842.74,574.5766830839945
842.858,575.7863234850547
842.976,577.3881716783228
843.094,565.4869895685606
843.212,564.4680585410495
843.33,568.1928504572613
843.448,575.5938328496636
843.566,585.8225208697714
843.684,587.1525075911778
843.802,595.265178295268
843.92,595.9873728088821
844.038,597.7701733831022
844.156,613.350376554725
844.274,632.6206230163912
844.392,644.3099170971052
844.51,646.7316787102866
844.628,635.4833104533383
844.746,617.2314789929269
844.864,583.6177427706109
844.982,555.0481623924509
845.1,521.0621317978407
845.218,492.72978085691034
845.336,466.1264342449842
845.454,435.66594477591525
845.572,405.0426847440757
845.69,368.3735372663489
845.808,336.42127290550513
845.926,312.1945496702024
846.044,296.7401208071938
846.162,287.225085883579
846.28,273.83299468290784
846.398,260.1041069454404
846.516,244.95790319065682
846.634,218.082695106869
846.752,198.50618832178256
846.87,183.17903218604673
846.988,174.57395397238878
847.106,153.5620276338812
847.224,135.00113135840508
847.342,123.35619728702623
847.46,113.04371664363615
847.578,104.22970874566231
847.696,104.08426645861303
847.814,109.3858852004069
847.932,131.62709064700041
848.05,136.68110539905464
848.168,150.44773777011477
848.285,163.63462120184352
848.403,170.361764373832
848.521,176.80665646356948
848.639,184.89050959226802
848.757,201.63063977724346
848.875,229.34566173711067
848.993,246.6173936536878
849.111,262.12029440143385
849.229,269.7045804305651
849.347,265.7486067194366
849.465,259.25237326804836
849.582,256.3102523707726
849.7,254.9430232483886
849.818,261.9550149052253
849.936,272.43194162699706
850.054,279.31925795915845
850.172,292.41609810084367
850.29,303.5103408399314
850.408,311.97774375217955
850.525,318.1083501276313
850.643,324.700428364555
850.761,328.97562348459564
850.879,333.6300393838569
850.997,333.53553753420044
851.115,341.40900105250927
851.233,338.5318152201686
851.35,341.2849324181311
851.468,345.49172926977315
851.586,366.9903010131902
851.704,399.32826669600126
851.822,450.2082237208035
851.94,513.7738950313203
852.057,583.5776615799322
852.175,643.894848041964
852.293,701.9618180537791
852.411,748.024459061265
852.529,792.2845026661536
852.647,827.8293947558905
852.764,859.3223387936793
852.882,894.6572741734594
853.0,920.3272744883045
853.118,932.3271449330196
853.236,929.9495262002456
853.353,911.5848944804586
853.471,883.5085744489834
853.589,844.6469730322265
853.707,800.7749820050799
853.824,766.1558048307471
853.942,738.6690951888818
854.06,706.8248097894405
854.178,669.9952430047178
854.296,630.2886199429388
854.413,590.2616505608132
854.531,535.541174685181
854.649,470.9332529221029
854.767,418.87165150534514
854.884,367.4446821232193
855.002,311.28437940776024
855.12,261.56823253645706
855.238,212.6191852322536
855.355,176.3904842483965
855.473,130.68831404306508
855.591,89.6938091573282
855.708,61.8633463842596
855.826,40.78843892101614
855.944,20.809070833049816
856.062,3.968551796446397
856.179,-8.384021524487176
856.297,-10.54978389862426
856.415,-22.886495713514442
856.532,-32.243754444306816
856.65,-41.10293228813771
856.768,-39.453087291765115
856.886,-41.399103600438025
857.003,-43.53240878746116
857.121,-30.658593426391718
857.239,-21.73802527810025
857.356,-13.190324061340021
857.474,0.11028165852964555
857.592,7.405983772262782
857.709,23.223656970917755
857.827,38.862386852662624
857.945,56.83427487244796
858.062,88.66672176039972
858.18,113.52486485502271
858.298,148.43211640453796
858.415,182.018396646069
858.533,209.21400390950004
858.651,237.16026052358055
858.768,252.05976389090785
858.886,267.6164101153781
859.003,273.6319307987229
859.121,268.60849044310663
859.239,260.94176004420024
859.356,240.89927206953593
859.474,226.49228193036947
859.592,214.010832916744
859.709,189.71812849186313
859.827,170.87564051719863
859.944,144.494624404006
860.062,122.31101088821592
860.18,98.4815099265384
860.297,84.88490939776118
860.415,81.87532185599709
860.532,91.79993344843211
860.65,93.13493465125696
860.768,102.05608304022905
860.885,114.0742011261709
861.003,121.42305514284865
861.12,121.98229876991601
861.238,128.72509218053307
861.356,123.16658688985136
861.473,122.85137164245963
861.591,111.67555033446192
861.708,104.80016192689718
861.826,108.32044451500335
861.943,106.7619392243216
862.061,104.75321748342336
862.178,104.83627063430004
862.296,92.99205105790394
862.414,101.7876583213347
862.531,102.66724826874807
862.649,96.7477040170271
862.766,109.63508617223252
862.884,114.9908665958362
863.001,114.09729637008927
863.119,109.89723263784896
863.236,107.80366241210227
863.354,118.87892335518679
863.471,117.49790724199417
863.589,120.93160974352003
863.706,140.2692083489419
863.824,161.59468574224246
863.941,172.56778218316208
864.059,177.07248035568333
864.176,180.62826077928676
864.294,173.23685505570398
864.411,161.5251030117749
864.529,153.39084014533492
864.646,147.16220498452267
864.764,157.55608064622123
864.881,159.7283112862749
864.999,163.1620137878004
865.116,172.33597602958565
865.233,190.71686467829733
865.351,214.10554553480125
865.468,236.9825380796169
865.586,253.32359988850163
865.703,263.92699935972405
865.821,264.98667588722356
865.938,257.21604938441993
866.056,240.4272410634346
866.173,236.13973144374802
866.29,233.97603134787084
866.408,239.42704986671234
866.525,249.72395583144117
866.643,259.8658834411917
866.76,265.31776776089896
866.878,265.20947892043307
866.995,253.9219693007464
867.112,252.2197410663411
867.23,241.97378988821276
867.347,239.68368286592857
867.465,239.28708233715093
867.582,246.80563332352466
867.699,245.8999418856559
867.817,246.4055058590427
867.934,247.72059364195326
868.051,256.63308402226653
868.169,267.2615917185971
868.286,279.6035193283478
868.404,282.4103820030335
868.521,304.296032556507
868.638,322.52540605370353
868.756,339.1530479491686
868.873,367.6620751260191
868.99,398.9944789262463
869.108,439.3545883541792
869.225,477.9588536262679
869.342,512.3085734438112
869.46,554.5145703176315
869.577,591.9560650269499
869.694,616.1542696929782
869.812,629.7758509823834
869.929,630.4424539168101
870.046,632.3687971109771
870.164,630.3557463657501
870.281,613.4924791703068
870.398,597.5244500701014
870.516,581.8023084157836
870.633,560.0342793155783
870.75,534.9294536785762
870.867,503.05493107187743
870.985,481.98387166864165
871.102,463.9188728714663
871.219,434.4478134682304
871.337,418.22350731174777
871.454,399.98275093881495
871.571,384.40086902475656
871.688,358.8579481496592
871.806,329.0397025992372
871.923,304.2266518540099
872.04,285.01533271051414
872.157,259.8221953852002
872.275,243.33814896897724
872.392,226.57618047483209
872.509,208.0142119806871
872.626,181.66349889779758
872.744,168.9855130876353
872.861,154.6659688359147
872.978,138.07802631579585
873.095,119.99744310303643
873.213,99.22075599417323
873.33,74.26138490262608
873.447,53.959156668221894
873.564,37.264060456278784
873.681,32.03475974630983
873.799,23.375638656127663
873.916,10.566396485909957
874.033,7.674344934040047
874.15,-1.1831901832061962
874.267,-9.507338552104041
874.385,-12.688007838628799
874.502,-10.637784138749812
874.619,-8.295746064986213
874.736,-10.251819404207579
874.853,-10.098404419983348
874.97,-12.684777729393929
875.088,-13.290467201208
875.205,-14.148012026480677
875.322,-13.962979534906435
875.439,-9.663319664226822
875.556,-5.879471675011151
875.673,-13.588837115771053
875.791,-17.263741213634162
875.908,-26.583059677784338
876.025,-24.040655092498667
876.142,-25.477314341865473
876.259,-20.244236871863055
876.376,-16.71215782280356
876.493,-16.34355260127925
876.61,-23.66982683614611
876.728,-15.26741136720728
876.845,-9.218585152215738
876.962,-0.35896670841337786
877.079,-1.1313535000442494
877.196,1.3182430343598046
877.313,-7.246112776749964
877.43,-13.763186633530719
877.547,-22.69911543770055
877.664,-13.043998157532808
877.781,-15.824678034700723
877.898,-15.596252492689725
878.016,-14.391945617455859
878.133,-12.751881492474306
878.25,-19.171263613931146
878.367,-13.514691178840582
878.484,-12.054204816800683
878.601,-7.060007604008952
878.718,-16.399699048542523
878.835,-19.34739316723089
878.952,-21.645145775358284
879.069,-28.311848063537752
879.186,-32.55380693594857
879.303,-28.04994227369432
879.42,-22.422732547643015
879.537,-22.33605892636107
879.654,-17.089439424962624
879.771,-15.920302085607368
879.888,-22.798846754051393
880.005,-27.2703245653193
880.122,-33.47930552522419
880.239,-41.4257896337661
880.356,-51.109776890945035
