wavelength_nm,intensity
792.446,0.2932471432296891
792.565,0.24909826002122515
792.684,0.2133527990267772
792.803,0.18601076024634527
792.922,0.16707214367992929
793.041,0.1516344622965775
793.16,0.1497225414284506
793.279,0.15515306409957308
793.398,0.17142990992966434
793.518,0.18814155090584403
793.637,0.2106674727972107
793.756,0.23277135876799487
793.875,0.24717946880090247
793.994,0.2486192983253081
794.113,0.2393933968055989
794.232,0.22285744054984774
794.351,0.20836590481170877
794.47,0.19916944765855177
794.589,0.18518141058845644
794.708,0.18586157545581367
794.827,0.18872160492692353
794.946,0.18924571465155382
795.066,0.1928349829342747
795.185,0.20399636081535272
795.304,0.21284046704876763
795.423,0.2113829709044306
795.542,0.19335025934893935
795.661,0.17582104646149183
795.78,0.16452029857873313
795.899,0.15139399996973413
796.018,0.14578386666264287
796.137,0.13625593583196183
796.256,0.135493415466802
796.375,0.13917607947248198
796.494,0.13556735341994497
796.613,0.12645790477492724
796.732,0.12262110241251437
796.851,0.12343552293770416
796.97,0.1307336177538215
797.089,0.13630061650331232
797.208,0.1592213456530291
797.327,0.18713380436313684
797.446,0.20906427440168085
797.565,0.2274514179656458
797.684,0.23300376214947902
797.803,0.2325857702753981
797.922,0.21510673094205043
798.041,0.19679245307750368
798.16,0.18318534794577893
798.279,0.16841715329300988
798.398,0.1576396517869576
798.517,0.15992563424125947
798.636,0.16196330253763716
798.755,0.1716898764196957
798.874,0.16332779444981357
798.993,0.1644644651296916
799.112,0.17019838290726294
799.231,0.17842231261627056
799.35,0.1722950580677048
799.469,0.16981301609830907
799.588,0.17122351938712238
799.707,0.17369205691404682
799.826,0.160428469392097
799.945,0.15297916278533424
800.064,0.1542080924804089
800.183,0.16999333552003754
800.302,0.17169828247437385
800.421,0.19103451612020536
800.54,0.21117752540956886
800.659,0.21969884322075392
800.778,0.21862424197255642
800.897,0.2098077352788839
801.016,0.19811647693082543
801.135,0.19062202229534964
801.254,0.19026291915437227
801.373,0.20204274686400803
801.492,0.21071226798683962
801.611,0.21764260852531742
801.729,0.21757696757097744
801.848,0.20754244558092608
801.967,0.18734372825703338
802.086,0.16051021367003065
802.205,0.14554376028247526
802.324,0.12444100507757203
802.443,0.10652437780381202
802.562,0.10366275506069073
802.681,0.09316130320828322
802.8,0.08179455082534973
802.919,0.07051099492563931
803.038,0.059899770825414374
803.157,0.053789625923605415
803.276,0.050272946666807976
803.394,0.05288344511005502
803.513,0.05918452838173903
803.632,0.05360622972869077
803.751,0.03975039226407311
803.87,0.03377691336597205
803.989,0.027857867404178144
804.108,0.0252137316108252
804.227,0.04022339711690602
804.346,0.058540189437633214
804.465,0.07777784919236302
804.583,0.08678565072545706
804.702,0.09252623635278842
804.821,0.0976043155226895
804.94,0.08411858037664927
805.059,0.0680060086172887
805.178,0.06295619549254687
805.297,0.05462185864988992
805.416,0.05808016686137951
805.535,0.05866932196159978
805.653,0.06715378873375408
805.772,0.08351614565735921
805.891,0.09466266782203361
806.01,0.10559770652379208
806.129,0.13336624091492486
806.248,0.16510129232833912
806.367,0.1930861386288325
806.485,0.2090083448573427
806.604,0.2202930633538714
806.723,0.2325700570032113
806.842,0.23604907392673477
806.961,0.2300587825670503
807.08,0.22471430431374553
807.198,0.22350087068772329
807.317,0.20894030570355984
807.436,0.20010274409827145
807.555,0.18856415260125536
807.674,0.18784636581219638
807.793,0.19484300305983046
807.912,0.21505525349500565
808.03,0.2440056104440076
808.149,0.27928356176509084
808.268,0.30573507347269036
808.387,0.33103334749032604
808.506,0.332883109464624
808.624,0.32837877713694363
808.743,0.3169236113451588
808.862,0.3069907193041261
808.981,0.2806131485436543
809.1,0.2585216960743071
809.219,0.2426479123419128
809.337,0.2303054896380199
809.456,0.20927501584343905
809.575,0.20822058179679892
809.694,0.2129725768342652
809.812,0.2276414345265339
809.931,0.22956480741721275
810.05,0.24556651343541386
810.169,0.2714252118964278
810.288,0.2843676482298487
810.406,0.2848492286383518
810.525,0.2816748001999487
810.644,0.27188225963948204
810.763,0.27244137687990616
810.882,0.2710630548011911
811.0,0.28070183320744807
811.119,0.3046927773501632
811.238,0.32691705949974265
811.357,0.3434320789748382
811.475,0.35492094507946237
811.594,0.3625584880390508
811.713,0.37069265931448725
811.832,0.37227055163762
811.95,0.3797000210735727
812.069,0.3755647248066815
812.188,0.3817899196506471
812.307,0.38327457147969834
812.425,0.38725316115572644
812.544,0.3843211580019384
812.663,0.3883282105656337
812.782,0.38558072544223976
812.9,0.3948121901111915
813.019,0.4023329370834568
813.138,0.42353059231924833
813.257,0.4582903227890124
813.375,0.48620718247203015
813.494,0.49357187430156796
813.613,0.49692428044891723
813.731,0.48446800619435615
813.85,0.47253387870665503
813.969,0.45882523739473746
814.088,0.4504430819921242
814.206,0.4550439292812889
814.325,0.45465003052430475
814.444,0.43868398777671347
814.562,0.4243786073026701
814.681,0.4162771548611887
814.8,0.42134322314187955
814.918,0.4193985877464766
815.037,0.43002865982665994
815.156,0.43630292861487846
815.274,0.43925783581377176
815.393,0.42998057166796977
815.512,0.4264086442811114
815.631,0.4360277931096672
815.749,0.44252976499922325
815.868,0.4415803491932865
815.987,0.4522555693021832
816.105,0.4538197209209246
816.224,0.44311146056068274
816.343,0.43444565776028277
816.461,0.4210245897616921
816.58,0.4060027297015433
816.698,0.3822329483387167
816.817,0.3720556680552999
816.936,0.3624182011586746
817.055,0.34490731064597413
817.173,0.33093367003508567
817.292,0.3267483183450547
817.41,0.31135251482969173
817.529,0.304274744865343
817.648,0.30361486533050264
817.766,0.31619317299755983
817.885,0.32799905678206265
818.004,0.33727272504307076
818.122,0.34577691385818
818.241,0.3538531778793965
818.359,0.3420699702066529
818.478,0.3279687900699819
818.597,0.3420829832800442
818.715,0.38824050459704784
818.834,0.44746681837882796
818.953,0.5689293115571836
819.071,0.7012085505609924
819.19,0.820106159913074
819.308,0.8776691960987448
819.427,0.8677472378647633
819.546,0.8004372313848211
819.664,0.6923885942026284
819.783,0.5525273556623947
819.901,0.46445515463365494
820.02,0.3901604828398482
820.138,0.33764243410597794
820.257,0.2994962843513928
820.376,0.26306248093443785
820.494,0.22979492840073612
820.613,0.22037927573213784
820.731,0.21554025910464636
820.85,0.2309000779320075
820.969,0.24221718523174293
821.087,0.26761949601119617
821.206,0.2904748690838788
821.324,0.30167518039629065
821.443,0.30499519774043177
821.561,0.2936156058227981
821.68,0.27609882643678757
821.798,0.250999141184684
821.917,0.2202588967800519
822.035,0.20937102578384092
822.154,0.19675673342878233
822.273,0.206167808733702
822.391,0.21554158784098898
822.51,0.22413312827687093
822.628,0.2286377906352987
822.747,0.23017446084525833
822.865,0.23460256785065026
822.984,0.2333273010548686
823.102,0.22632903088021203
823.221,0.23065015668713046
823.339,0.23882751303351057
823.458,0.25068050780449824
823.576,0.24882616846652233
823.695,0.26203458557779935
823.813,0.2685169278896542
823.932,0.271085132407828
824.05,0.26720109473551584
824.169,0.266430308086663
824.287,0.2690505309857463
824.406,0.25931786063726986
824.524,0.246236384332916
824.643,0.24762975862565464
824.761,0.23809829144861827
824.88,0.22521703683681915
824.998,0.2252942479446713
825.117,0.23738672356361729
825.235,0.2479245366286038
825.354,0.2403658420105692
825.472,0.23784017111520145
825.591,0.24893055679248544
825.709,0.2526735915360947
825.828,0.24378008563435755
825.946,0.2377878313169036
826.064,0.24000662935199096
826.183,0.22965660878480207
826.301,0.21646324388754956
826.42,0.20539870669202542
826.538,0.2207084700962486
826.657,0.23666306512796625
826.775,0.24571491916094834
826.894,0.2455447975897613
827.012,0.2433587183886292
827.13,0.2287215980514299
827.249,0.2217351056233937
827.367,0.21642203469441118
827.486,0.22469165005598776
827.604,0.2322398784370339
827.723,0.24990617264432297
827.841,0.2590237857626047
827.959,0.2684564536029957
828.078,0.2842294750409741
828.196,0.30012125542404683
828.315,0.3146527060724049
828.433,0.31925257188268474
828.552,0.3182560450902643
828.67,0.30852631917844275
828.788,0.27304439850359963
828.907,0.23586134712654294
829.025,0.20538038439625877
829.143,0.16430888018215234
829.262,0.1313344994075485
829.38,0.11149726758666259
829.499,0.10837906768839929
829.617,0.11312028034563046
829.735,0.11993892798600735
829.854,0.14305871817443822
829.972,0.18074154475366366
830.091,0.21864863709784554
830.209,0.26719538270296644
830.327,0.3342162217061867
830.446,0.40392434989674364
830.564,0.4568128744337627
830.682,0.49894046447481444
830.801,0.5197660367941888
830.919,0.5166180058667103
831.037,0.47645448026749615
831.156,0.42303411936756813
831.274,0.3760954450246784
831.392,0.31750661631594324
831.511,0.26939801914204375
831.629,0.24484785964661032
831.747,0.2256271304971364
831.866,0.21124901816662478
831.984,0.19584133448566893
832.102,0.19376409702180777
832.221,0.1836463260103336
832.339,0.1622152172835375
832.457,0.15743754540740013
832.576,0.149788316223391
832.694,0.13834668413114032
832.812,0.1330232290847031
832.93,0.1394466729257946
833.049,0.1451586085274651
833.167,0.14137952412557764
833.285,0.1343111643271545
833.404,0.1443059375315071
833.522,0.14135785988487237
833.64,0.1408631233844786
833.759,0.14955153880524152
833.877,0.16216832758808922
833.995,0.16948266116490046
834.113,0.18058330177187476
834.232,0.19933615599487498
834.35,0.2209507346213357
834.468,0.22566661184269693
834.586,0.23174674471431303
834.705,0.24589463402124945
834.823,0.24922171862022918
834.941,0.2384253220629732
835.059,0.2302484926499835
835.178,0.2283806095102587
835.296,0.22451247240275013
835.414,0.21445218500930027
835.532,0.22726133711699348
835.651,0.25004918504924867
835.769,0.2615421739720555
835.887,0.27123611209851917
836.005,0.3014969402617389
836.124,0.3233307907177009
836.242,0.3420670938123646
836.36,0.3572327767231238
836.478,0.38016588353037
836.596,0.39657804462517443
836.715,0.3995007599235016
836.833,0.40221638317707786
836.951,0.4251151382233458
837.069,0.4298889226989255
837.188,0.4420905393767563
837.306,0.4593114390728631
837.424,0.4716867775133522
837.542,0.479924200974363
837.66,0.48428183840267036
837.779,0.48785429272291725
837.897,0.4879964783398255
838.015,0.4798147415324089
838.133,0.4758091973809883
838.251,0.4752996810182066
838.369,0.47672073362236833
838.487,0.4714500631880856
838.606,0.47936752453256176
838.724,0.4803312079762784
838.842,0.469301219444373
838.96,0.46348288379221814
839.078,0.45516766585643126
839.196,0.4496261072498676
839.315,0.4438823639929783
839.433,0.4363022737421128
839.551,0.42920899701824455
839.669,0.42323558770224756
839.787,0.41349820686198624
839.905,0.4178342517548217
840.023,0.42759885636100947
840.142,0.42777833817555033
840.26,0.4193109910125765
840.378,0.41366637712307974
840.496,0.3941691702496283
840.614,0.3945056886857816
840.732,0.383080164163191
840.85,0.3852834554387581
840.968,0.39136947718368376
841.087,0.393898619449096
841.205,0.39737096292306584
841.323,0.4069628272454811
841.441,0.4046415008608504
841.559,0.4227123612714322
841.677,0.4314935240347746
841.795,0.44695266913217013
841.913,0.4628780166999762
842.031,0.48661495471409794
842.149,0.5046377226593104
842.267,0.5204580519864137
842.385,0.53384431367853
842.504,0.548338665031897
842.622,0.5553698509431502
842.74,0.5501011434666381
842.858,0.552660711577488
842.976,0.5445889004052007
843.094,0.5407423558331632
843.212,0.5387547322694588
843.33,0.5439750896377487
843.448,0.5541234524880023
843.566,0.5638340757555123
843.684,0.5643924084196938
843.802,0.5699631537499557
843.92,0.5776185602321177
844.038,0.5841089512776951
844.156,0.5827102150450361
844.274,0.5897551416606812
844.392,0.5944140931067079
844.51,0.5971935124878152
844.628,0.5917569721219559
844.746,0.5798652451289552
844.864,0.5713713980360859
844.982,0.543241102889512
845.1,0.5076093646243064
845.218,0.48433051960666046
845.336,0.44569545595312426
845.454,0.4153038334553367
845.572,0.38982254981958175
845.69,0.37175241324503167
845.808,0.3551211247160023
845.926,0.3487531608882072
846.044,0.33730898826680183
846.162,0.34335280641967103
846.28,0.3154914364876088
846.398,0.29113787209080616
846.516,0.2683546739101243
846.634,0.2514073491801011
846.752,0.2275847648601243
846.87,0.20803161369022585
846.988,0.19654720043453272
847.106,0.19492370553719252
847.224,0.17611353388329642
847.342,0.16445590870081803
847.46,0.16378527258654932
847.578,0.15810941292591746
847.696,0.15770455741159017
847.814,0.15192788390878714
847.932,0.15842789027407753
848.05,0.16153598326030905
848.168,0.17807660071868775
848.285,0.19440141520564644
848.403,0.21275377565138023
848.521,0.21891841542893292
848.639,0.24106742032882433
848.757,0.2564982022603741
848.875,0.2656632229896023
848.993,0.26929270280700496
849.111,0.28654510954925505
849.229,0.2962813509895974
849.347,0.2939257725658103
849.465,0.28983493947320993
849.582,0.2848480161585356
849.7,0.2881673486482547
849.818,0.2840421637946764
849.936,0.2828084157365303
850.054,0.28772854028780726
850.172,0.2915680565866161
850.29,0.2951523883753052
850.408,0.30162030512834614
850.525,0.30592406093979546
850.643,0.3176497600801852
850.761,0.3300193093691842
850.879,0.34273335774684494
850.997,0.34802742575333523
851.115,0.35426665792615303
851.233,0.3485524587576369
851.35,0.36258757771460914
851.468,0.3730069284589634
851.586,0.38740421312452855
851.704,0.4177279556582131
851.822,0.45105011618580315
851.94,0.49531576628198454
852.057,0.5528323628055696
852.175,0.6006097443525507
852.293,0.6617578127509146
852.411,0.7078431247000253
852.529,0.7490004311671722
852.647,0.7863908216733995
852.764,0.8137956460028688
852.882,0.8385318292438178
853.0,0.8540205184295859
853.118,0.858585347624464
853.236,0.8452902055476244
853.353,0.8317339900873546
853.471,0.8014739854819859
853.589,0.7697820031832923
853.707,0.7413858269806822
853.824,0.7161578646190958
853.942,0.6886244083564671
854.06,0.6652700891864898
854.178,0.626441773914413
854.296,0.5962131766333674
854.413,0.5516186729114723
854.531,0.49613564243855024
854.649,0.458392842813367
854.767,0.41808740181925175
854.884,0.37780649779726344
855.002,0.33299508724176685
855.12,0.28453159375490433
855.238,0.24212480646784246
855.355,0.20716253652407773
855.473,0.16853454188327183
855.591,0.1484778933657966
855.708,0.1214353873607283
855.826,0.10448997404520535
855.944,0.08334031327691072
856.062,0.06508483879401122
856.179,0.047171090539897514
856.297,0.04009875240538015
856.415,0.035426552487046015
856.532,0.03613489415115005
856.65,0.03592535511413088
856.768,0.04447901160342049
856.886,0.042885723027209395
857.003,0.04246150544154242
857.121,0.042526814292584994
857.239,0.044624625035374926
857.356,0.047606618474025704
857.474,0.05308316896952851
857.592,0.06676466618960862
857.709,0.09006430795180825
857.827,0.10595037251211216
857.945,0.13053217929711103
858.062,0.15723340551403903
858.18,0.1809880268619054
858.298,0.19959893209586543
858.415,0.22235571765062795
858.533,0.2482571615531722
858.651,0.2747955852521302
858.768,0.28554692108464963
858.886,0.3077099119139415
859.003,0.31547558897806155
859.121,0.3139545128315978
859.239,0.307621245711609
859.356,0.2971392673444061
859.474,0.2796927148087076
859.592,0.2663978179568779
859.709,0.2447102951587679
859.827,0.23424500193261066
859.944,0.2137754944308793
860.062,0.19996728412215511
860.18,0.18466428147146122
860.297,0.1824807070775709
860.415,0.17702193764418375
860.532,0.17826078012255156
860.65,0.1754137260023503
860.768,0.17551307149514542
860.885,0.18104882853237342
861.003,0.18526744090583003
861.12,0.18477201019426917
861.238,0.1952740503899787
861.356,0.1914023323137582
861.473,0.18583363724524243
861.591,0.18199038205668938
861.708,0.177687794749921
861.826,0.1863093214018262
861.943,0.18858362410394824
862.061,0.19181388724013365
862.178,0.19189851054965198
862.296,0.18131543985728507
862.414,0.17196510664457293
862.531,0.17037140106061197
862.649,0.16691877446831807
862.766,0.17477867350540388
862.884,0.17663879211802347
863.001,0.18676001850632337
863.119,0.18648345758613394
863.236,0.18602139715666538
863.354,0.1948402010644701
863.471,0.19973210795308777
863.589,0.2060275296473631
863.706,0.21197158190078114
863.824,0.21821498521414706
863.941,0.23303945841972773
864.059,0.23663875761670028
864.176,0.24215292211845507
864.294,0.24152499175740777
864.411,0.23265067580395662
864.529,0.2171121182208432
864.646,0.20290542748477713
864.764,0.1953796635194195
864.881,0.20209613965539164
864.999,0.20952418798304312
865.116,0.22884481596115375
865.233,0.25669842136611026
865.351,0.2802914269309541
865.468,0.2937889406839118
865.586,0.3043410363027579
865.703,0.30554552702014526
865.821,0.3062435746328337
865.938,0.2971994628322633
866.056,0.28909855224025055
866.173,0.28391655985245223
866.29,0.2789033818328871
866.408,0.288211943704343
866.525,0.2919584647340763
866.643,0.29511904286941937
866.76,0.3111350314414806
866.878,0.3090937714859236
866.995,0.29781777670069154
867.112,0.29158560190586214
867.23,0.2842188375198855
867.347,0.27889158625709576
867.465,0.2645602477026239
867.582,0.2651120549614363
867.699,0.27265493631864113
867.817,0.2725805600487755
867.934,0.276853153760909
868.051,0.29581750490373715
868.169,0.30515060374731984
868.286,0.30192469877747696
868.404,0.3037642063335086
868.521,0.31697905416756456
868.638,0.3314325283545855
868.756,0.3499689547035204
868.873,0.37079320833356605
868.99,0.4150787332324555
869.108,0.45295618249068736
869.225,0.47373725104979
869.342,0.5015633750459643
869.46,0.5284610200168569
869.577,0.5527224127024368
869.694,0.5714678940538925
869.812,0.5787300724499654
869.929,0.5952112820135519
870.046,0.6098836259919442
870.164,0.6013665683526587
870.281,0.5928367514878674
870.398,0.5786958198370993
870.516,0.5662283096853851
870.633,0.5503393641402975
870.75,0.5187879785471758
870.867,0.49356811324167604
870.985,0.48119384358404377
871.102,0.4538569283234365
871.219,0.42918865415134955
871.337,0.4122995816223707
871.454,0.4004376439427483
871.571,0.3905278677655407
871.688,0.36622568521758675
871.806,0.3455402523611359
871.923,0.3249323563366061
872.04,0.3051390877866891
872.157,0.28118336728516735
872.275,0.26807985881592516
872.392,0.2508266576205839
872.509,0.24254908082925758
872.626,0.22378342067201495
872.744,0.206118979823827
872.861,0.19139799415198033
872.978,0.18353263849238582
873.095,0.17152936785331327
873.213,0.16392508557714883
873.33,0.14463743485313668
873.447,0.12094251512431939
873.564,0.09828330914461753
873.681,0.08576853716090364
873.799,0.07272927301556929
873.916,0.06876142880532726
874.033,0.06974730084766922
874.15,0.07691681610311671
874.267,0.07207395572227555
874.385,0.07034017710566912
874.502,0.06846665314505697
874.619,0.0682945367874406
874.736,0.061847870200341507
874.853,0.06172726092247835
874.97,0.05439768866232745
875.088,0.05828422429906127
875.205,0.044007033751044505
875.322,0.04881745940356358
875.439,0.04955081237872996
875.556,0.05285376904819607
875.673,0.05354962568417529
875.791,0.06039898105009182
875.908,0.05494814437271399
876.025,0.061757075866813047
876.142,0.060234787471668196
876.259,0.06469136865805199
876.376,0.06025016435300522
876.493,0.05606308953481094
876.61,0.053026659191559834
876.728,0.05562154273521479
876.845,0.05680263147365018
876.962,0.06388115271275237
877.079,0.0697528477454867
877.196,0.06670097377448136
877.313,0.06052176575067299
877.43,0.06252988442654768
877.547,0.060686530104143696
877.664,0.05715684647340109
877.781,0.05841662944566439
877.898,0.061954776070510316
878.016,0.06223638630863734
878.133,0.06336914748236236
878.25,0.0685692219435839
878.367,0.07225270544027829
