wavelength_nm,intensity
792.446,0.3195762979849733
792.565,0.27898231751889035
792.684,0.24456977914306083
792.803,0.21633868285748475
792.922,0.1942890286621619
793.041,0.17327580797409206
793.16,0.15704861583103485
793.279,0.16809364043782762
793.398,0.18261352932281327
793.518,0.211252704563603
793.637,0.24675010583322157
793.756,0.27493623197415695
793.875,0.2891302825902819
793.994,0.28166389951854515
794.113,0.26712950413528835
794.232,0.25177716542643247
794.351,0.24361781809112548
794.47,0.23807075632911626
794.589,0.22946282343188457
794.708,0.2261319082519213
794.827,0.22526375012461441
794.946,0.22382314325783645
795.066,0.21919110677139497
795.185,0.21717023997376902
795.304,0.22391241401642825
795.423,0.2119545959030324
795.542,0.20241378357851442
795.661,0.1953201059238992
795.78,0.1952754705446032
795.899,0.19363400447099324
796.018,0.1800246773236458
796.137,0.17356705382399845
796.256,0.1675423935035222
796.375,0.1617989360726107
796.494,0.15877042558737778
796.613,0.15395873169927013
796.732,0.15798037937383877
796.851,0.14885467607677358
796.97,0.14923407680078946
797.089,0.1441824677489657
797.208,0.15239872519287517
797.327,0.17355589497917445
797.446,0.18548358421154543
797.565,0.20477164748982518
797.684,0.20970608867099685
797.803,0.20835363667832835
797.922,0.20592658792910895
798.041,0.1938080824502477
798.16,0.18879999289323765
798.279,0.17750612604686972
798.398,0.16802668736888382
798.517,0.1826079499004013
798.636,0.17774157767265603
798.755,0.18802445317796973
798.874,0.19635118318563677
798.993,0.20345825145404084
799.112,0.19969214132594165
799.231,0.1900252340549125
799.35,0.1791275061997965
799.469,0.17950579103932995
799.588,0.17968433255651384
799.707,0.1832060639829674
799.826,0.1873169824161282
799.945,0.18130906036288802
800.064,0.17444302314268234
800.183,0.17946338742899876
800.302,0.17540268379754603
800.421,0.19463272108274102
800.54,0.21606439845171066
800.659,0.22590761547095897
800.778,0.22984445592486538
800.897,0.21753067066158407
801.016,0.21127836990669818
801.135,0.20876316628336905
801.254,0.2114557955393997
801.373,0.23131965521059772
801.492,0.240800209773066
801.611,0.24913140331866263
801.729,0.25212308961597635
801.848,0.24727680330891416
801.967,0.2333851573875196
802.086,0.20659165508061922
802.205,0.18072991631652263
802.324,0.15852493100124987
802.443,0.13412688735764636
802.562,0.11826724922414211
802.681,0.10915237470042068
802.8,0.10593105751406193
802.919,0.08991191269467558
803.038,0.07177758948551634
803.157,0.06678905096637533
803.276,0.06643241490950162
803.394,0.06477950407495334
803.513,0.06396997638398597
803.632,0.055608323088865055
803.751,0.059538082076896065
803.87,0.05155162713911508
803.989,0.0496004539777392
804.108,0.05945163535213267
804.227,0.0577513545190569
804.346,0.05945856840462102
804.465,0.06300800009483018
804.583,0.060068606556925086
804.702,0.07115428404758305
804.821,0.07504163519947125
804.94,0.07906129083243875
805.059,0.07767776014338264
805.178,0.06642937426269951
805.297,0.05588163258433984
805.416,0.06381025676676456
805.535,0.06149131069588743
805.653,0.06485416505341163
805.772,0.06707057108303746
805.891,0.08491752320199442
806.01,0.09835553768106231
806.129,0.12284377444261231
806.248,0.146884900482486
806.367,0.18060837308232375
806.485,0.1910009316581019
806.604,0.207031372732226
806.723,0.22287769286675438
806.842,0.23219943643269172
806.961,0.22899760845265701
807.08,0.22159001185845778
807.198,0.20800376288521136
807.317,0.19021844060469495
807.436,0.1663638226244063
807.555,0.16973343836122454
807.674,0.18056832128529743
807.793,0.19167882767652322
807.912,0.21423384531924092
808.03,0.24964385219920376
808.149,0.27581879910282625
808.268,0.3093563518213222
808.387,0.3249761474059253
808.506,0.33477883718377843
808.624,0.3246931178318207
808.743,0.30230477206140566
808.862,0.28105128080959096
808.981,0.27110727878689767
809.1,0.24596269834495477
809.219,0.24841394115275778
809.337,0.2280163332989435
809.456,0.21322939262263538
809.575,0.20511097761314828
809.694,0.1974433799345508
809.812,0.2052106964165068
809.931,0.22722674185422528
810.05,0.250870862751765
810.169,0.2828617995776547
810.288,0.27869138386689785
810.406,0.2886190527067792
810.525,0.2803923969024988
810.644,0.27053543386943246
810.763,0.2636757365560919
810.882,0.267218314387682
811.0,0.28511339843189787
811.119,0.3107437937081088
811.238,0.3296152766744245
811.357,0.3492846170456557
811.475,0.3435095594492077
811.594,0.34776407158056866
811.713,0.3381280536750174
811.832,0.3395638416038367
811.95,0.34441088839535194
812.069,0.35517547059703314
812.188,0.36695104413976865
812.307,0.36257084214632074
812.425,0.36304808530475885
812.544,0.3740481191322266
812.663,0.38274273561905636
812.782,0.3966630391369642
812.9,0.4059758556270434
813.019,0.41260496993695117
813.138,0.42078293190842997
813.257,0.42354215883337565
813.375,0.42711040200806105
813.494,0.42569510508434927
813.613,0.42941845620208835
813.731,0.4221324910164716
813.85,0.4268411681321699
813.969,0.42245873436975745
814.088,0.4227819854696249
814.206,0.4304276705429997
814.325,0.42621708299087735
814.444,0.41701402826449857
814.562,0.41991274074974533
814.681,0.41611168280266386
814.8,0.42190165198180823
814.918,0.41087189435774113
815.037,0.40718577251234683
815.156,0.40870748354631237
815.274,0.3985782446995423
815.393,0.396915221420739
815.512,0.40645456246074696
815.631,0.4121686514950883
815.749,0.4224098838745254
815.868,0.4319235595714377
815.987,0.43566699660986075
816.105,0.4331927253123523
816.224,0.4274902002072616
816.343,0.4222117112054825
816.461,0.410302636609284
816.58,0.39945142050240057
816.698,0.38755238886654386
816.817,0.38008230274133176
816.936,0.3537459576721871
817.055,0.33947790328019567
817.173,0.32686135792215587
817.292,0.32033754183801866
817.41,0.32039074889314556
817.529,0.33075026502771643
817.648,0.32943874536086837
817.766,0.33798160155809276
817.885,0.3287428385282771
818.004,0.3245992040450988
818.122,0.32755482663894764
818.241,0.3341080608040534
818.359,0.3397362267332497
818.478,0.3615535962694615
818.597,0.3634131021885888
818.715,0.3962387410822704
818.834,0.41524370193456617
818.953,0.5191875678364712
819.071,0.6353543916020066
819.19,0.7361236587661613
819.308,0.8043868409740769
819.427,0.8205579337906732
819.546,0.7617683123600159
819.664,0.666483750143373
819.783,0.5446649232820551
819.901,0.48165445013759833
820.02,0.4098257039618059
820.138,0.3570628135134699
820.257,0.31465103659087523
820.376,0.2746060506554503
820.494,0.24900060992227818
820.613,0.22720145115857165
820.731,0.23119261455208845
820.85,0.23620927578493045
820.969,0.2577945898124444
821.087,0.28430207029182386
821.206,0.3096892027508741
821.324,0.3331804474743273
821.443,0.3364652559904858
821.561,0.32419463482199196
821.68,0.2931849655405592
821.798,0.2600327980529187
821.917,0.2296826165005843
822.035,0.21023239457233073
822.154,0.20090659255289012
822.273,0.20981099532241437
822.391,0.21670569013913654
822.51,0.21972938168641393
822.628,0.21543956633604333
822.747,0.22430714491764822
822.865,0.2352045173727384
822.984,0.2464221486742771
823.102,0.25152138535881785
823.221,0.25909342205635666
823.339,0.26157702551415263
823.458,0.25963391523026885
823.576,0.25126665798120995
823.695,0.25481258346625096
823.813,0.26257320464131584
823.932,0.2622168820914048
824.05,0.2646346483647397
824.169,0.2573185542981016
824.287,0.24545299919671948
824.406,0.24060189395170217
824.524,0.22692191068193807
824.643,0.23404424593307
824.761,0.2342793421588305
824.88,0.23595058171343924
824.998,0.24260759313540992
825.117,0.2432343648144923
825.235,0.23680316714239624
825.354,0.24136119985297289
825.472,0.24209063290443605
825.591,0.24267611685766974
825.709,0.2418901787820344
825.828,0.23325845691064628
825.946,0.2243734292617533
826.064,0.21054949689375926
826.183,0.20816784400829225
826.301,0.2186579186273065
826.42,0.22075542605419204
826.538,0.22783982123292196
826.657,0.24049805940123864
826.775,0.23992413937725882
826.894,0.232876973470878
827.012,0.2115275161535794
827.13,0.21192106797584004
827.249,0.21350973207875124
827.367,0.20310375388034763
827.486,0.21159639527586624
827.604,0.22540622623001988
827.723,0.24950562799638168
827.841,0.25881844448646435
827.959,0.26509382341545484
828.078,0.28324556089062597
828.196,0.3032987655238064
828.315,0.3087986047375292
828.433,0.3100067522319427
828.552,0.30497375781629443
828.67,0.2928046821357
828.788,0.2536003559314864
828.907,0.21749698460786576
829.025,0.18381819060292498
829.143,0.16758929097367403
829.262,0.15329870548095775
829.38,0.13674876436356587
829.499,0.13203302266587325
829.617,0.12880579864079
829.735,0.12314866284456706
829.854,0.13754940828772386
829.972,0.15612394671370072
830.091,0.19654096870418747
830.209,0.24603704520512842
830.327,0.300216739384205
830.446,0.36769128570688825
830.564,0.4207460661175574
830.682,0.4500949965841261
830.801,0.46720936958566406
830.919,0.43216730187983743
831.037,0.3863859619153953
831.156,0.33197102371062626
831.274,0.28344572380396266
831.392,0.2401148661628698
831.511,0.22219604583946648
831.629,0.21075381905191154
831.747,0.20895618184573772
831.866,0.19741687310821404
831.984,0.1964003550397198
832.102,0.19976033591119707
832.221,0.18898345056806343
832.339,0.16970743418353768
832.457,0.16947395532624826
832.576,0.16434916828210824
832.694,0.1566120447229821
832.812,0.14682012061134087
832.93,0.15798962435191394
833.049,0.16493080654422604
833.167,0.15423380557393032
833.285,0.14617985733621533
833.404,0.15778391645776746
833.522,0.1580700702774579
833.64,0.1488599628739282
833.759,0.14778213379607552
833.877,0.16893866098226032
833.995,0.18888645493269823
834.113,0.20794661239612994
834.232,0.22838138945432082
834.35,0.2548904441210813
834.468,0.25475474744528087
834.586,0.2484258918921617
834.705,0.24125565943931282
834.823,0.2326849919610522
834.941,0.2246867732222626
835.059,0.21918701983956607
835.178,0.22198944700592385
835.296,0.2336341428108174
835.414,0.24053967721895914
835.532,0.26193162397761455
835.651,0.2805717996026721
835.769,0.29901781132779215
835.887,0.30327758362816404
836.005,0.3215004184568041
836.124,0.336132337021082
836.242,0.3570187881092106
836.36,0.370029326520562
836.478,0.3895666732694696
836.596,0.40071926401762553
836.715,0.41544045334049606
836.833,0.41401144654959465
836.951,0.42917006258956547
837.069,0.42313245288635315
837.188,0.4363940653062443
837.306,0.45088538242573983
837.424,0.46063642226400103
837.542,0.46735114042565273
837.66,0.4791487124046355
837.779,0.4914551277075927
837.897,0.49058517904237353
838.015,0.4850552967786534
838.133,0.4794662726373661
838.251,0.48216827020030883
838.369,0.4890637616481099
838.487,0.4812742133075304
838.606,0.4815034108574754
838.724,0.48542618604416365
838.842,0.4731083784740062
838.96,0.47385088288585564
839.078,0.460595732350483
839.196,0.4640732696286948
839.315,0.46811321268603606
839.433,0.44235792417882136
839.551,0.43216699243211826
839.669,0.42461624337077264
839.787,0.4139477130656018
839.905,0.4155048131496023
840.023,0.4189198608967982
840.142,0.4345382213435179
840.26,0.43527626221743687
840.378,0.42012299217750126
840.496,0.415982386094369
840.614,0.40770408035049854
840.732,0.3903681402629894
840.85,0.38485499626650554
840.968,0.38503286313026047
841.087,0.39843507699493497
841.205,0.40982088759991325
841.323,0.42395065814711275
841.441,0.43230237884444644
841.559,0.43603991720705726
841.677,0.43973282019037185
841.795,0.448552096485831
841.913,0.4528922124689372
842.031,0.4714442332198867
842.149,0.4915417539789597
842.267,0.5034799274027257
842.385,0.5165618824209514
842.504,0.5209332431695646
842.622,0.5298429061080975
842.74,0.5395716282567118
842.858,0.5480505597850385
842.976,0.5593526790538366
843.094,0.5526745516577276
843.212,0.535834064280404
843.33,0.5384724564278505
843.448,0.5310600770423224
843.566,0.5342831926585463
843.684,0.5531443134111201
843.802,0.5711116106932919
843.92,0.5814005068520707
844.038,0.5866578798797089
844.156,0.5867620983676245
844.274,0.6029707617055333
844.392,0.6020427870472288
844.51,0.6002064824202507
844.628,0.6014622936940022
844.746,0.5809070268747683
844.864,0.5577785304391204
844.982,0.5350852289516086
845.1,0.506533533931498
845.218,0.4906114194831877
845.336,0.45107272584936886
845.454,0.4259043925798939
845.572,0.4039464589662828
845.69,0.37449536105335723
845.808,0.34074587611422796
845.926,0.3320892855308222
846.044,0.32800447367180807
846.162,0.32442850513676846
846.28,0.3002042101394038
846.398,0.29297037227105777
846.516,0.2875308766504103
846.634,0.2673907188586286
846.752,0.2350238147931927
846.87,0.22458515669139417
846.988,0.2064371868242378
847.106,0.17656344020179598
847.224,0.14134399713326407
847.342,0.1364415876326669
847.46,0.14395946594603795
847.578,0.1423002451095228
847.696,0.14669147369669105
847.814,0.17199543778911694
847.932,0.1919325102205282
848.05,0.18935818877359267
848.168,0.19526637185968018
848.285,0.21240927991456846
848.403,0.22520023848809767
848.521,0.23753480030832527
848.639,0.24768557619649667
848.757,0.2742164204018141
848.875,0.28891777320921175
848.993,0.2876061836941729
849.111,0.2861774263084823
849.229,0.2811566367739466
849.347,0.2764940461582611
849.465,0.276048383001564
849.582,0.26972424039158494
849.7,0.2752463274467617
849.818,0.28184301125848943
849.936,0.2834684297011262
850.054,0.2803267896349512
850.172,0.2874535185758186
850.29,0.2930436745844217
850.408,0.2936067709998139
850.525,0.3060841660337882
850.643,0.3250392704880931
850.761,0.3349378564832418
850.879,0.34047333415220726
850.997,0.34241120024991606
851.115,0.34131609232446225
851.233,0.3328639580065471
851.35,0.32486933632641585
851.468,0.33883532125991156
851.586,0.36446229903448474
851.704,0.3967299053638186
851.822,0.44659500998059654
851.94,0.49801900521928677
852.057,0.5575744506812239
852.175,0.6071974083653211
852.293,0.6506115847893463
852.411,0.688456381761714
852.529,0.7162995061183328
852.647,0.7458153413140687
852.764,0.7735245595327993
852.882,0.7958362445101621
853.0,0.8211262251710499
853.118,0.8295507277649479
853.236,0.8299408620855677
853.353,0.8132680067858129
853.471,0.7868244669581657
853.589,0.7607703708148761
853.707,0.7290777103820205
853.824,0.698725227212527
853.942,0.6722593696952318
854.06,0.6447713619920584
854.178,0.619715982460517
854.296,0.5891470177014382
854.413,0.5532653269216543
854.531,0.5092700400703419
854.649,0.4658505496119477
854.767,0.4170234829518442
854.884,0.3701380552911161
855.002,0.32660362873103455
855.12,0.28998657007734896
855.238,0.2513899323518862
855.355,0.21657837479072364
855.473,0.18001418733880756
855.591,0.1408892003234166
855.708,0.10759736352485905
855.826,0.0863358289485873
855.944,0.06538507650272204
856.062,0.05258308961378893
856.179,0.04566028473457229
856.297,0.05269870748186578
856.415,0.04448029326428954
856.532,0.04529575515192295
856.65,0.04639377977141158
856.768,0.042951850937666534
856.886,0.034392232591601034
857.003,0.036924329772124315
857.121,0.04120499708931884
857.239,0.054853320357133556
857.356,0.06485274619474951
857.474,0.08543884383714359
857.592,0.09982970277906747
857.709,0.10935512804004748
857.827,0.12696843093012194
857.945,0.14350568237578804
858.062,0.15608864481456575
858.18,0.18250399457231758
858.298,0.20813063399181136
858.415,0.23313662084716835
858.533,0.25228421416992686
858.651,0.2700916302293231
858.768,0.28724402209755073
858.886,0.3004997453532382
859.003,0.31234945416110205
859.121,0.3204933106029162
859.239,0.3167808944192329
859.356,0.2982751976523762
859.474,0.275968798338466
859.592,0.25322831996090234
859.709,0.2388000650927348
859.827,0.22955063010738447
859.944,0.21807946911757659
860.062,0.2142744345218552
860.18,0.20226653309601317
860.297,0.19188893889895706
860.415,0.18880588156334813
860.532,0.17931541552979974
860.65,0.1827212264593453
860.768,0.1834857388190504
860.885,0.18265899990685341
861.003,0.18930645525777
861.12,0.1977103127839836
861.238,0.21004654722617389
861.356,0.20235377109377106
861.473,0.20689778419536403
861.591,0.20767457128437536
861.708,0.2066402778584517
861.826,0.20874050394358884
861.943,0.21327335820035753
862.061,0.21660440486958138
862.178,0.21140563055534162
862.296,0.19819257388850678
862.414,0.20057288697872622
862.531,0.19762038812755706
862.649,0.19484085137115975
862.766,0.2011892496807922
862.884,0.21211165848378122
863.001,0.21292750152967554
863.119,0.2029884499342012
863.236,0.20092754278446917
863.354,0.2057527587756262
863.471,0.20483116968242465
863.589,0.20576976002138347
863.706,0.20855960271664353
863.824,0.21997523246085382
863.941,0.2263359054997931
864.059,0.220412922156476
864.176,0.22032824642507434
864.294,0.2240431573562437
864.411,0.22948880511961517
864.529,0.22794566836971702
864.646,0.233716038517467
864.764,0.2502413033065858
864.881,0.26195933774552654
864.999,0.27114543029390226
865.116,0.27642369538491396
865.233,0.2918955652226473
865.351,0.3046982393784806
865.468,0.30050710875184816
865.586,0.30535017889472427
865.703,0.30774165082976795
865.821,0.2990791710821595
865.938,0.29422297330401626
866.056,0.2840295000465549
866.173,0.28928879510136535
866.29,0.289481974606081
866.408,0.29464307182644045
866.525,0.308487982088835
866.643,0.32128396093777384
866.76,0.32823270509893776
866.878,0.3255591773683688
866.995,0.31147684668974485
867.112,0.3020086983458441
867.23,0.29446879838753015
867.347,0.2874500164824969
867.465,0.2805450547946685
867.582,0.2849495823359615
867.699,0.2835682488360116
867.817,0.27350868171643866
867.934,0.2752607518430673
868.051,0.29016240471029464
868.169,0.31330374859556176
868.286,0.318016260253997
868.404,0.3193677278514444
868.521,0.3311080799800339
868.638,0.3414625035814831
868.756,0.35164842862609
868.873,0.3670388388966097
868.99,0.39487024526140413
869.108,0.42621445597679275
869.225,0.45143915619070113
869.342,0.4743606708329366
869.46,0.5106326274226027
869.577,0.5431920363393251
869.694,0.5669326101916424
869.812,0.5631856015890067
869.929,0.5705862789655443
870.046,0.5792233563485809
870.164,0.5754819271683569
870.281,0.5702217792075872
870.398,0.5759876858174093
870.516,0.5694275324346438
870.633,0.5526693107672271
870.75,0.5238695796502343
870.867,0.5056194204298486
870.985,0.4838430662450798
871.102,0.4531036951794299
871.219,0.43492565421159335
871.337,0.4223037526836225
871.454,0.408062511111568
871.571,0.3931526630744341
871.688,0.38077791292119073
871.806,0.36002379452948585
871.923,0.339872062098155
872.04,0.31296680511921887
872.157,0.289886861649822
872.275,0.2773634797726722
872.392,0.2564374295634906
872.509,0.24225578516593302
872.626,0.2247008219780809
872.744,0.21066535844771755
872.861,0.19578628624865987
872.978,0.17766780139719557
873.095,0.16562084401446853
873.213,0.15914661373684597
873.33,0.1433101126518894
873.447,0.12950898486283002
873.564,0.1176762773007238
873.681,0.10995966253276931
873.799,0.09957821370029736
873.916,0.09918898736808843
874.033,0.0984800655397352
874.15,0.10294642553655112
874.267,0.09852057184382662
874.385,0.09402260334323595
874.502,0.0852756444153287
874.619,0.07808887511228929
874.736,0.07157412460632094
874.853,0.07254716416655708
874.97,0.06835006808319913
875.088,0.07369411191398978
875.205,0.0653219028267015
875.322,0.07230666940046926
875.439,0.07093617541080183
875.556,0.07281901725413542
875.673,0.06683320598617887
875.791,0.059637555509314794
875.908,0.05612781842225137
876.025,0.05720539000010974
876.142,0.05098658156413421
876.259,0.05245845977729582
876.376,0.05837178099122391
876.493,0.06596501369705274
876.61,0.06334550178403302
876.728,0.06787666979320103
876.845,0.08010277153978135
876.962,0.08080580090046893
877.079,0.08079069585786833
877.196,0.0784776686709727
877.313,0.08398366957401082
877.43,0.08080182114010474
877.547,0.06626759441241899
877.664,0.0652629317881871
877.781,0.05767417746800127
877.898,0.05762324506341661
878.016,0.05792924011360355
878.133,0.06448703387198773
878.25,0.07375288805581413
878.367,0.07726673537755552
