wavelength_nm,intensity
792.446,0.25672880870328985
792.565,0.2232477608521421
792.684,0.19462483792477228
792.803,0.17086003992118043
792.922,0.15195336684136643
793.041,0.13101557395068356
793.16,0.12499659974658209
793.279,0.12660229467915063
793.398,0.13865709885341884
793.518,0.16061356630196136
793.637,0.18319516281370835
793.756,0.208999874940899
793.875,0.21761610283784538
793.994,0.21310901756386222
794.113,0.20685479549424063
794.232,0.19168900319183277
794.351,0.179789565209123
794.47,0.17623373142873822
794.589,0.1719589625826986
794.708,0.1692114727140543
794.827,0.16180446281744482
794.946,0.1575025781738218
795.066,0.16697918299949277
795.185,0.17108685990366762
795.304,0.17996838290129397
795.423,0.18341721921013382
795.542,0.17714101135868793
795.661,0.163265784449367
795.78,0.1516543602085557
795.899,0.13634785890247228
796.018,0.1385537656788446
796.137,0.1359843606429771
796.256,0.1381939317163201
796.375,0.14414328427797796
796.494,0.141785675607018
796.613,0.13978423660161177
796.732,0.13470991815656141
796.851,0.1332192821488733
796.97,0.13540686744039204
797.089,0.1348989958802505
797.208,0.1392096748366033
797.327,0.15460924928574293
797.446,0.15870153614264088
797.565,0.17500326050597126
797.684,0.1821764882558488
797.803,0.18565683751863676
797.922,0.17943119696538676
798.041,0.17234884378038295
798.16,0.16488833514800103
798.279,0.15792104088787778
798.398,0.15117507016478593
798.517,0.15524170694288886
798.636,0.15708264974097752
798.755,0.16057399189467775
798.874,0.16106793912633055
798.993,0.16407705979868417
799.112,0.1670150931098058
799.231,0.16818107240588828
799.35,0.1667212164927542
799.469,0.1612225724584947
799.588,0.16454022693578277
799.707,0.16252999361764686
799.826,0.15988217262660603
799.945,0.15756340550353565
800.064,0.16519980039051205
800.183,0.16805282201191313
800.302,0.17139759228678453
800.421,0.17853710850453153
800.54,0.18583052519504878
800.659,0.19699197376785593
800.778,0.20893171901724364
800.897,0.2107360188456252
801.016,0.2134556600572921
801.135,0.20986611474477673
801.254,0.2106795886722761
801.373,0.21183604079623466
801.492,0.20787127147391776
801.611,0.2104450736661501
801.729,0.20837841017466513
801.848,0.20118173092417488
801.967,0.18412516138487656
802.086,0.17064860998596978
802.205,0.15626356893514592
802.324,0.14042746156236824
802.443,0.1181028013661071
802.562,0.09717519493786303
802.681,0.08075693757102395
802.8,0.07086359291426776
802.919,0.06380019019671479
803.038,0.06375313060527954
803.157,0.06200904211659419
803.276,0.05844823298322517
803.394,0.048750047954078446
803.513,0.04214439887064915
803.632,0.033264826612780136
803.751,0.028181223508870343
803.87,0.032062753186453144
803.989,0.03294189362228934
804.108,0.04078191468140839
804.227,0.04801614884124729
804.346,0.050223543132026455
804.465,0.057818649482241385
804.583,0.058809607868517896
804.702,0.05552130521984325
804.821,0.04915251482654054
804.94,0.0449986050316047
805.059,0.04842531271165347
805.178,0.05273842358551817
805.297,0.0538622883926787
805.416,0.0651132119393246
805.535,0.06974966893178047
805.653,0.06721100202039551
805.772,0.07417863600560788
805.891,0.08563475659787867
806.01,0.10180090106166532
806.129,0.12502638246318631
806.248,0.1553627170153899
806.367,0.1884746690460683
806.485,0.21423810245615954
806.604,0.22791427952943116
806.723,0.2448355579999706
806.842,0.24219242208445207
806.961,0.23257393045547453
807.08,0.22008116428266572
807.198,0.20946012100249967
807.317,0.19372518486999957
807.436,0.18747711359468852
807.555,0.18328471291995047
807.674,0.18976640932091415
807.793,0.20407064689496682
807.912,0.23050444030149045
808.03,0.2566333642000503
808.149,0.2833192612381593
808.268,0.3035677213581109
808.387,0.32442445477520165
808.506,0.3263822101361173
808.624,0.3208076366440248
808.743,0.3130857851270916
808.862,0.3044808380402153
808.981,0.2789981391062118
809.1,0.26281029586813176
809.219,0.2477657132849158
809.337,0.23603292230383494
809.456,0.22262701332592438
809.575,0.21613709845054704
809.694,0.2269800411060603
809.812,0.23190807559144033
809.931,0.23659866363311804
810.05,0.25706331727434284
810.169,0.26918216813506013
810.288,0.2761321616888828
810.406,0.27750143095630186
810.525,0.269240927784674
810.644,0.2654376754482276
810.763,0.25787558727921867
810.882,0.2681534953418475
811.0,0.28256106609047577
811.119,0.2976927019205178
811.238,0.32220640371438625
811.357,0.3392779183607264
811.475,0.34232543564073453
811.594,0.3446415592453876
811.713,0.35850827976113797
811.832,0.36739155639671184
811.95,0.37305464885441847
812.069,0.37358259553736073
812.188,0.38677948256686334
812.307,0.38740856384619726
812.425,0.38329311340784555
812.544,0.38672904616674963
812.663,0.3995631677961513
812.782,0.4051529743144435
812.9,0.42255354282875396
813.019,0.43630886871659413
813.138,0.45212792665834267
813.257,0.4635417667818941
813.375,0.47464194308475216
813.494,0.48506862160439235
813.613,0.4888064924336838
813.731,0.48323704895735176
813.85,0.47932166913360175
813.969,0.47604241126396873
814.088,0.4654961196420076
814.206,0.45934112150975503
814.325,0.45820401164920393
814.444,0.46215587742158615
814.562,0.4582903320366384
814.681,0.45138488588478287
814.8,0.4554268933626444
814.918,0.4512747999545863
815.037,0.43965340360141625
815.156,0.42725224485287727
815.274,0.4235640514413117
815.393,0.426381450871559
815.512,0.4284564637355387
815.631,0.4427189283241265
815.749,0.4651080707343728
815.868,0.47137723791103636
815.987,0.4716472180872403
816.105,0.4682719556369739
816.224,0.463878751488242
816.343,0.44899173367476763
816.461,0.42910075191808067
816.58,0.41706235856964247
816.698,0.4051639413654857
816.817,0.395664172958361
816.936,0.3826019750363041
817.055,0.37665804040956413
817.173,0.36178567978397236
817.292,0.346436227692793
817.41,0.3331263232955153
817.529,0.32146242109748424
817.648,0.31692924080447055
817.766,0.316401869959846
817.885,0.31840579546259346
818.004,0.3262432817427241
818.122,0.33318448098381687
818.241,0.3475238958087893
818.359,0.35482067105311677
818.478,0.354573595727239
818.597,0.33384347217167476
818.715,0.336229700700029
818.834,0.34022210376773276
818.953,0.4382609418581528
819.071,0.5666375526164062
819.19,0.7021886915875512
819.308,0.8024174879308504
819.427,0.8363573554243784
819.546,0.7808338778694168
819.664,0.6783323527299588
819.783,0.5426491909519364
819.901,0.46932022712639787
820.02,0.3963291603005441
820.138,0.35474020137447276
820.257,0.3146549165913789
820.376,0.2809451380987187
820.494,0.2530212845228222
820.613,0.23096910041280425
820.731,0.2354075848228953
820.85,0.2427467267150068
820.969,0.2555815812038011
821.087,0.284203692761237
821.206,0.3036086317185288
821.324,0.30967626256180103
821.443,0.3128549616733593
821.561,0.29831825065028406
821.68,0.2814122052059427
821.798,0.25668435144790636
821.917,0.23109612076114544
822.035,0.22082904856835078
822.154,0.21258320258460434
822.273,0.21383155005198834
822.391,0.21865258706582247
822.51,0.2177888337592846
822.628,0.21735746749529122
822.747,0.228042112521668
822.865,0.23750727951618972
822.984,0.2391997397764243
823.102,0.2390571201137232
823.221,0.24579531730263646
823.339,0.24532144519378257
823.458,0.2502311581943076
823.576,0.24705523349924619
823.695,0.25417818187008506
823.813,0.25980096706111194
823.932,0.2547709080988674
824.05,0.2531105366308952
824.169,0.25329037510161767
824.287,0.25055343318364864
824.406,0.24760322918198382
824.524,0.2424771656391066
824.643,0.23644162358809712
824.761,0.23367390157557386
824.88,0.2320443102021555
824.998,0.23971177310284297
825.117,0.24646536033903324
825.235,0.24405454085145767
825.354,0.23946493038509314
825.472,0.24253809774389423
825.591,0.23541279377379287
825.709,0.23513532798256942
825.828,0.23636315538691705
825.946,0.23540559607792852
826.064,0.23141619745536798
826.183,0.22624396377065964
826.301,0.22803316147092162
826.42,0.23493405344533536
826.538,0.24161435474211185
826.657,0.2571094888316477
826.775,0.26287444874513877
826.894,0.25594335251448586
827.012,0.24763814491981362
827.13,0.23669464350622427
827.249,0.22898744917717312
827.367,0.22723913458190353
827.486,0.22936324902528876
827.604,0.2400823384431902
827.723,0.25104180574237084
827.841,0.25890933925765963
827.959,0.2702213119254234
828.078,0.2853397562863691
828.196,0.30064141549585055
828.315,0.3147331238456007
828.433,0.3115784520729693
828.552,0.3086077280082679
828.67,0.2933726019825733
828.788,0.26505886720899174
828.907,0.2335557283520973
829.025,0.20894220065954688
829.143,0.18709146200428312
829.262,0.1632232830409315
829.38,0.1433171709313495
829.499,0.13755492577638923
829.617,0.1286707437757067
829.735,0.12553323904753141
829.854,0.1360833007293788
829.972,0.16502778446467997
830.091,0.2110062779850229
830.209,0.2614952918902421
830.327,0.32064613160110866
830.446,0.37957317477709307
830.564,0.4182661196360432
830.682,0.4396144812137963
830.801,0.44287367436590264
830.919,0.4252991406612945
831.037,0.3893408290545939
831.156,0.3369063725487563
831.274,0.2909364687586597
831.392,0.24457228661451375
831.511,0.21574616263161855
831.629,0.2075038604520349
831.747,0.20074779712377452
831.866,0.19799681038450906
831.984,0.1926089955451149
832.102,0.18677193789711066
832.221,0.18185974880451572
832.339,0.1686405984793029
832.457,0.17064953350500026
832.576,0.17072005451749406
832.694,0.1617017838911168
832.812,0.15513708158410328
832.93,0.14975675411661393
833.049,0.1443386341034387
833.167,0.13709990250736814
833.285,0.13720807944779456
833.404,0.14529210886097377
833.522,0.15083044761929704
833.64,0.1575477872422369
833.759,0.17087426623304675
833.877,0.18603755956451046
833.995,0.19954966293982995
834.113,0.21179795491272405
834.232,0.2280234748176353
834.35,0.23830697075483007
834.468,0.24279135030616653
834.586,0.25000123394432294
834.705,0.2537036525221079
834.823,0.2527165038367678
834.941,0.24117031700060648
835.059,0.22930680204678094
835.178,0.2205066393604757
835.296,0.2159130895965548
835.414,0.21194027173947366
835.532,0.22536187160239105
835.651,0.24229020366628556
835.769,0.25724421252235713
835.887,0.2747756878676317
836.005,0.29286780064942597
836.124,0.3069519054046489
836.242,0.32280806417491104
836.36,0.32721695920865007
836.478,0.34129520108872
836.596,0.35455337330674325
836.715,0.37464252793757924
836.833,0.39494274607392854
836.951,0.4127175307380587
837.069,0.4254627013801812
837.188,0.43542154060576954
837.306,0.43329113126556473
837.424,0.44048635771583733
837.542,0.44104114519577464
837.66,0.45311941378922604
837.779,0.4534220976375781
837.897,0.4598463560052119
838.015,0.46023698298086135
838.133,0.46032860332370046
838.251,0.4583205815023181
838.369,0.46373935678118705
838.487,0.45986254350473843
838.606,0.4662523574808476
838.724,0.46544769078464887
838.842,0.4647478229818127
838.96,0.4481053319187762
839.078,0.43742391916770396
839.196,0.4324947198012649
839.315,0.4313925121910439
839.433,0.4294013461357268
839.551,0.43973907366808773
839.669,0.4417214712478174
839.787,0.43959032904821915
839.905,0.4262420409618586
840.023,0.4197386596167997
840.142,0.4152587030589713
840.26,0.4093496706825629
840.378,0.4004315176338009
840.496,0.398056333255953
840.614,0.39573538047327184
840.732,0.3859209403854721
840.85,0.3834937229906398
840.968,0.3862426914966437
841.087,0.39116678668446603
841.205,0.39298722233809036
841.323,0.39455995151649426
841.441,0.4013733582224192
841.559,0.4180679081395824
841.677,0.43118170705695985
841.795,0.4440675867027585
841.913,0.4688660958003614
842.031,0.4903300946546111
842.149,0.5015787664138931
842.267,0.5101913429324406
842.385,0.5137669768350394
842.504,0.5195895576400824
842.622,0.5192268051585535
842.74,0.5201744052737531
842.858,0.537612074616578
842.976,0.5351665357368927
843.094,0.5329371903784795
843.212,0.5371599391261068
843.33,0.5337015885637151
843.448,0.5291182988313132
843.566,0.5266243912316149
843.684,0.5384249061146875
843.802,0.550586720679073
843.92,0.5499806588786885
844.038,0.5634887361501157
844.156,0.578587118306835
844.274,0.5849117077968669
844.392,0.5897493255761814
844.51,0.5868787282478936
844.628,0.5797678064650909
844.746,0.5660868002137903
844.864,0.5424345090457718
844.982,0.5180603513745219
845.1,0.4848676966135419
845.218,0.4582920293222845
845.336,0.43592517353159377
845.454,0.4127060022655139
845.572,0.3951532998349523
845.69,0.3754833666147097
845.808,0.3527742654869537
845.926,0.3430404399325101
846.044,0.3210927797152693
846.162,0.31365280406449536
846.28,0.2972536223203158
846.398,0.27955434801092555
846.516,0.2602926174732212
846.634,0.23847833766571463
846.752,0.22306338608787007
846.87,0.20908185029212545
846.988,0.1947490686886846
847.106,0.18402837924604465
847.224,0.16875801231389098
847.342,0.15827903419776304
847.46,0.15382630849010004
847.578,0.1528787494338775
847.696,0.15495990402725385
847.814,0.1530620313933021
847.932,0.16689789304263192
848.05,0.17568219096251092
848.168,0.1895583959528998
848.285,0.2034367995214711
848.403,0.21502208604576706
848.521,0.22576531712619216
848.639,0.23116233892633975
848.757,0.24338814456111754
848.875,0.25710018904721865
848.993,0.26200839363147277
849.111,0.2684167613955388
849.229,0.27317985981975257
849.347,0.2778440222257569
849.465,0.28370347830360965
849.582,0.27554773132786003
849.7,0.27644353072917816
849.818,0.2917971802581615
849.936,0.31138675708529495
850.054,0.33840313101267994
850.172,0.3725282410632579
850.29,0.4055420994168092
850.408,0.4283598299191308
850.525,0.42829682790189716
850.643,0.4263224748444836
850.761,0.4237331990151302
850.879,0.4071081463288849
850.997,0.3837187476944407
851.115,0.363770070175247
851.233,0.34897553903481143
851.35,0.3447103753902012
851.468,0.3535740645533739
851.586,0.38206348586298755
851.704,0.4160486197692842
851.822,0.45083623471216816
851.94,0.49382088197854834
852.057,0.5384625243350873
852.175,0.5841103826397855
852.293,0.6323240151226999
852.411,0.6715920509601139
852.529,0.7050554678950072
852.647,0.7283077821257082
852.764,0.7497741082608032
852.882,0.7725786258975263
853.0,0.7967946209752922
853.118,0.8138410428480729
853.236,0.8242023115753976
853.353,0.8117365704352539
853.471,0.7832008821644367
853.589,0.7556998938289158
853.707,0.7254894762458097
853.824,0.6996644892772592
853.942,0.6800284998922513
854.06,0.6549928024911933
854.178,0.6213071656610584
854.296,0.5784329377471507
854.413,0.5333989731987018
854.531,0.48972739426396594
854.649,0.4380236763694162
854.767,0.3961432057939674
854.884,0.3527325248035466
855.002,0.30591331477096384
855.12,0.2618731075609737
855.238,0.22729631370755987
855.355,0.20241524963866592
855.473,0.17295691014698766
855.591,0.14424749651938684
855.708,0.12036254656836551
855.826,0.09431655113246112
855.944,0.07096048887150086
856.062,0.05264289944754044
856.179,0.04877506696344248
856.297,0.04875361577313316
856.415,0.05173827749997627
856.532,0.047468922085467644
856.65,0.044551237378164535
856.768,0.05132097310237367
856.886,0.04659229232457528
857.003,0.04019967084782245
857.121,0.037350847693884505
857.239,0.03581026014593011
857.356,0.037000409960091504
857.474,0.035449945492706345
857.592,0.04791233748105046
857.709,0.0749030171859501
857.827,0.09450573939048307
857.945,0.11325749238499533
858.062,0.1380652463691688
858.18,0.16083546988125302
858.298,0.18052199052377216
858.415,0.19625294821610556
858.533,0.219802049925163
858.651,0.24624814481927004
858.768,0.2664517433940619
858.886,0.28238057312281417
859.003,0.29739406146828107
859.121,0.29499261203071364
859.239,0.29399238975474873
859.356,0.27178834662802703
859.474,0.2541595446989438
859.592,0.23614892302551185
859.709,0.21561506645804346
859.827,0.19935744445540304
859.944,0.17698191223045182
860.062,0.15937363036440486
860.18,0.15475821269712992
860.297,0.14372221387776302
860.415,0.14446839553804297
860.532,0.1490540275642413
860.65,0.15274337255140202
860.768,0.15718756271453072
860.885,0.1608996263429101
861.003,0.16779229974187287
861.12,0.16872902484463054
861.238,0.16853128360525405
861.356,0.16625368740529792
861.473,0.16676242262187568
861.591,0.163957167658136
861.708,0.16205845976495198
861.826,0.1659324853194371
861.943,0.1659912448680106
862.061,0.16124904252554928
862.178,0.15586265677563557
862.296,0.15633108472553514
862.414,0.16604673251073862
862.531,0.16974707038881132
862.649,0.1714159220263178
862.766,0.17571793746698217
862.884,0.16956791222837037
863.001,0.15878035274361763
863.119,0.14796714318006976
863.236,0.15330029178829396
863.354,0.1655479687802631
863.471,0.17476527217744844
863.589,0.1842881779419917
863.706,0.19640833739937985
863.824,0.19834907987211337
863.941,0.19886367796384335
864.059,0.1983332185595245
864.176,0.20248353210560074
864.294,0.19793040748682747
864.411,0.1974798297564701
864.529,0.19522934935409597
864.646,0.19454572233640074
864.764,0.19222562029158294
864.881,0.20171554738338948
864.999,0.20884933152302437
865.116,0.22179102636124737
865.233,0.23479721282615504
865.351,0.2540700799703848
865.468,0.27058739579263436
865.586,0.2800868500565647
865.703,0.2850806847653
865.821,0.28139966282555745
865.938,0.26813357286981065
866.056,0.25595577911436723
866.173,0.2484375053868889
866.29,0.2502082244801809
866.408,0.25716245806825067
866.525,0.2627543060426075
866.643,0.2650841968536311
866.76,0.26286742798338764
866.878,0.25781889041417333
866.995,0.2462244527364683
867.112,0.240251779471239
867.23,0.24449589901976576
867.347,0.24887999471257388
867.465,0.2534201894563347
867.582,0.2564836725208959
867.699,0.26271530674633986
867.817,0.2664933277201911
867.934,0.26731206246049044
868.051,0.2710563719022112
868.169,0.2817269354779834
868.286,0.29301310094483635
868.404,0.2976903403953025
868.521,0.30831766526682075
868.638,0.3209713463631461
868.756,0.33710464386286554
868.873,0.35474689885512656
868.99,0.3736958421471456
869.108,0.4067706502612827
869.225,0.4361672370762129
869.342,0.4606734531540228
869.46,0.5026019356088085
869.577,0.5380812553951306
869.694,0.5676705842307204
869.812,0.5796558975595865
869.929,0.5812507303982846
870.046,0.5864431700028334
870.164,0.5782418713200139
870.281,0.5626408913345264
870.398,0.5521816528583505
870.516,0.5381783063520962
870.633,0.529891263120162
870.75,0.5109784915325395
870.867,0.48766050212671985
870.985,0.47571575765861474
871.102,0.45816537168470534
871.219,0.4324905064673198
871.337,0.4062784553140272
871.454,0.38921542083722327
871.571,0.3724543244308065
871.688,0.3446761527522289
871.806,0.3187850940135711
871.923,0.3033416787978246
872.04,0.28789093498813667
872.157,0.26667185488714445
872.275,0.2508356270361372
872.392,0.23889308114621494
872.509,0.22147754130082814
872.626,0.20172564570691157
872.744,0.18175828945111672
872.861,0.16477880094524527
872.978,0.1536563247173694
873.095,0.14391968560381896
873.213,0.13662200255397836
873.33,0.12227289472503414
873.447,0.11063811633399037
873.564,0.09543738944455456
873.681,0.07847609195956741
873.799,0.07058443476340527
873.916,0.06918831843011272
874.033,0.07419026026031741
874.15,0.07428481087730833
874.267,0.0679618909131144
874.385,0.06317139052180415
874.502,0.05731316311718503
874.619,0.04764754613524562
874.736,0.04511573731466901
874.853,0.041252814371952384
874.97,0.03758750037063585
875.088,0.03533578612702461
875.205,0.04065282546909746
875.322,0.04691216639343814
875.439,0.05358183349379246
875.556,0.05428772285147933
875.673,0.05671204032133556
875.791,0.05063985999154731
875.908,0.04215775530708349
876.025,0.03902660564215858
876.142,0.04264163459089223
876.259,0.04652657141419257
876.376,0.05037301943414276
876.493,0.055770616869634304
876.61,0.05753302453784575
876.728,0.0559602340304328
876.845,0.05394771257082475
876.962,0.04979763832229329
877.079,0.04628496213424965
877.196,0.0458019608548514
877.313,0.04450432689642578
877.43,0.04627860611309
877.547,0.050449368236034534
877.664,0.046427867424611455
877.781,0.04968456562316618
877.898,0.044302028083543665
878.016,0.04109070869652389
878.133,0.03925608046561554
878.25,0.04107484413498412
