wavelength_nm,intensity
792.446,251.00662354943242
792.565,207.31086597367494
792.684,169.67961056241955
792.803,138.11285731566633
792.922,112.6106062334151
793.041,82.3396105624194
793.16,70.55779238060116
793.279,77.45129887410758
793.398,84.16298718579583
793.518,105.94220796501654
793.637,144.53008675289536
793.756,176.27987030267894
793.875,193.90411272692137
793.994,198.98290060570923
794.113,189.00541142822004
794.232,174.42445904726765
794.351,153.29805212086072
794.47,139.10584432865295
794.589,132.15173177454048
794.708,129.89458891739764
794.827,126.51017333298205
794.946,127.61493523774394
795.066,135.1430737658825
795.185,141.50151532432403
795.304,152.77424259705128
795.423,151.9257577485664
795.542,142.7906928135015
795.661,134.05822528103394
795.78,119.67554129834997
795.899,107.82186164467035
796.018,98.79761922042798
796.137,90.72922095202973
796.256,94.09025991306868
796.375,90.14393956674839
796.494,74.60797189123346
796.613,66.91820488828395
796.732,62.22961965996125
796.851,66.50031309261027
796.97,72.51660608196786
797.089,78.50429894441855
797.208,95.92693981526244
797.327,116.00530516819578
797.446,118.67843877635012
797.565,135.30914814208023
797.684,139.9138834818363
797.803,145.64242834540184
797.922,142.02205546004953
798.041,132.9687821417968
798.16,124.2626949707302
798.279,111.09080693386265
798.398,99.10506608314245
798.517,97.12278843588551
798.636,97.81929866741663
798.755,105.30109028422923
798.874,113.11448363264367
798.993,116.78675143993262
799.112,119.39321838142068
799.231,120.87760740083084
799.35,125.74294880119326
799.469,113.22041141367676
799.588,112.20523333351952
799.707,111.43074789405472
799.826,107.57227977060728
799.945,102.76056489391303
800.064,109.73846040682918
800.183,119.87652907991871
800.302,128.16524710365763
800.421,128.1336188070503
800.54,132.36346237191498
800.659,148.25824100171468
800.778,159.6404655189603
800.897,168.82009263360843
801.016,169.04647299500976
801.135,169.8053208888786
801.254,170.18667960525823
801.373,176.0797266333262
801.492,173.75112863974917
801.611,187.07967350331506
801.729,191.5571361157988
801.848,183.25364634733023
801.967,160.45838168708678
802.086,137.3470997108261
802.205,116.15876145750896
802.324,93.71221297094269
802.443,57.95045924367339
802.562,31.415034616494225
802.681,14.579791411950646
802.8,-0.916503022122447
802.919,-6.886773744199747
803.038,-5.209166615086254
803.157,-1.7877418191443653
803.276,-0.055376639098056124
803.394,-10.59150362686897
803.513,-21.45029010531301
803.632,-24.036938095243794
803.751,-33.03432810363929
803.87,-33.904704839426
803.989,-32.10255987788682
804.108,-25.193352081292247
804.227,-12.010365693706488
804.346,-11.31601925153115
804.465,-6.401356628339758
804.583,-0.7482634545509952
804.702,-1.7461188314347968
804.821,-3.018347690638539
804.94,-7.543672870455827
805.059,-7.0624173418668095
805.178,-5.7931616771860615
805.297,-8.939015427565938
805.416,-1.4104666265709829
805.535,6.651861562658216
805.653,11.429850043855364
805.772,20.2529887384678
805.891,30.607974461255857
806.01,55.591278797176024
806.129,85.16809566369315
806.248,122.08940044497176
806.367,166.21550266807716
806.485,187.22115767804186
806.604,206.81609970247007
806.723,219.84047895633552
806.842,227.67351621885916
806.961,226.73079590562548
807.08,211.93612754044403
807.198,205.27565830946187
807.317,184.94073020402095
807.436,157.57982807260618
807.555,153.342735465001
807.674,155.55499350674643
807.793,170.8183337995742
807.912,186.23838404911197
808.03,214.74761178782745
808.149,250.45424212394553
808.268,281.75654345573463
808.387,315.84932097799987
808.506,328.1741331322999
808.624,318.60630459395907
808.743,299.2012466183889
808.862,272.57454362117363
808.981,250.736585212703
809.1,228.4570683626739
809.219,219.67885021394338
809.337,216.46859743317816
809.456,199.12414551821377
809.575,187.53726936082506
809.694,185.27593432897748
809.812,193.76611444864503
809.931,208.61993093194891
810.05,224.61487295637824
810.169,244.69639506738753
810.288,258.3978305983101
810.406,262.34948257944893
810.525,265.44918650863974
810.644,267.4553839443239
810.763,265.6520575704842
810.882,271.87816842608163
811.0,281.94843512583475
811.119,289.6316888385748
811.238,311.41797285434507
811.357,332.01378067963907
811.475,343.83902573437035
811.594,348.7378638626946
811.713,348.33280588712273
811.832,359.153721937525
811.95,368.6110016242908
812.069,363.8362466790221
812.188,372.0303229025849
812.307,375.83045973220834
812.425,379.98038011161543
812.544,382.17705373777585
812.663,389.5217793119882
812.782,407.0691022887978
812.9,427.1991092482914
813.019,444.6347439134129
813.138,453.181201089357
813.257,471.0566625943054
813.375,487.94164790877755
813.494,494.79546439208093
813.613,501.62417265027597
813.731,503.5983354539253
813.85,502.44262812770455
813.969,501.1847562993195
814.088,493.7398714839215
814.206,499.28806026159714
814.325,498.8475044505283
814.444,498.5532689857799
814.562,497.3265659885642
814.681,495.12497121645674
814.8,497.3034630244357
814.918,491.93823188869203
815.037,493.13663711658484
815.156,497.8545228639583
815.274,494.94989778882115
815.393,490.17514284355434
815.512,486.1164052143049
815.631,491.92087104825885
815.749,499.41538017225605
815.868,500.99214037850425
815.987,501.9593767752284
816.105,498.7465265918661
816.224,480.35618723101436
816.343,455.50437600869077
816.461,432.23784617164836
816.58,413.9280262913161
816.698,389.88140987418734
816.817,376.16379778606307
816.936,363.5206445723977
817.055,356.70000218124324
817.173,336.3962429069719
817.292,318.99291653313355
817.41,315.02335639306125
817.529,313.0711122703053
817.648,309.05393308261415
817.766,315.1432474014165
817.885,311.72693401459094
818.004,309.4560751732199
818.122,299.2397617863943
818.241,299.88405446017487
818.359,309.0492630770742
818.478,317.1478619681273
818.597,305.267572579458
818.715,322.27028650883625
818.834,331.1955197900056
818.953,447.66303024755126
819.071,577.1489325497135
819.19,746.6997584879612
819.308,881.4494928658469
819.427,953.956454234678
819.546,904.0427754224964
819.664,790.1744292818485
819.783,620.2027461299409
819.901,508.01390570418505
820.02,378.5690510124104
820.138,308.86794505562807
820.257,261.4708395151029
820.376,241.3046992115935
820.494,212.622584958967
820.613,196.49977806564797
820.731,200.13974173509956
820.85,206.9268915517374
820.969,218.2136084679424
821.087,240.75227343609546
821.206,270.40868732199755
821.324,293.2226769654754
821.443,301.73623370852033
821.561,295.6073662091409
821.68,271.15295758422036
821.798,233.01370047445118
821.917,198.65539574563428
822.035,172.05206937179565
822.154,159.50328845250252
822.273,163.0428192215212
822.391,176.0871118953021
822.51,185.82058205826064
822.628,183.19907386624112
822.747,186.35072584738182
822.865,201.67900120514588
822.984,207.5925579481911
823.102,212.5234307085522
823.221,211.1962948109047
823.339,208.8908039349022
823.458,209.53509660868332
823.576,205.5144542175293
823.695,214.56653909910247
823.813,237.24719540924696
823.932,240.2966828882225
824.05,233.9236595446871
824.169,221.06838511890066
824.287,219.48930116930453
824.406,217.67818258767372
824.524,220.20905534803416
824.643,222.97715754562395
824.761,222.5158225137765
824.88,215.06314549058703
824.998,208.88752474445366
825.117,209.76298624940262
825.235,216.9587940746979
825.354,212.8368529822443
825.472,220.72356989844877
825.591,215.9306331349996
825.709,214.61735005120414
825.828,215.7014695648114
825.946,212.70506959789913
826.064,211.8541241764415
826.183,210.99192334372853
826.301,202.50288268417574
826.42,206.18613639691745
826.538,201.6174420577112
826.657,205.10242737218476
826.775,206.60559450484038
826.894,201.8239131526475
827.012,201.24223180045448
827.13,197.29864568635645
827.249,187.11090372810244
827.367,187.44264228932883
827.486,184.21161028778454
827.604,193.329496035158
827.723,209.90798784313773
827.841,223.57825454289238
827.959,244.71172470585054
828.078,265.7317749553888
828.196,279.29208494518707
828.315,285.47144255403293
828.433,286.53564864772744
828.552,286.3401144816818
828.67,270.1125456836017
828.788,242.2364920370366
828.907,209.27350270620866
829.025,176.70714906743478
829.143,137.90262563402155
829.262,100.25144345359956
829.38,80.914420318492
829.499,65.48255563411465
829.617,60.37916407869183
829.735,71.27484535684457
829.854,88.78964870175463
829.972,119.59845762929241
830.091,164.35096139087392
830.209,218.63331641985852
830.327,289.61237612683146
830.446,355.1312245176989
830.564,418.46132831982175
830.682,460.5316918622043
830.801,475.05054025307174
830.919,456.8464449209956
831.037,415.34191668848655
831.156,358.78976940835855
831.274,298.3718212624299
831.392,243.0577692203974
831.511,206.23635787100557
831.629,177.50066080732813
831.747,170.57189015057713
831.866,163.7054571561639
831.984,157.7299332526598
832.102,157.37345696820324
832.221,142.73315605318282
832.339,129.1193009957676
832.457,125.06755191583107
832.576,109.96781923358077
832.694,109.61414107361564
832.812,102.25965695292048
832.93,103.31604132227696
833.049,100.01951038133816
833.167,86.37277693381213
833.285,77.74406888323504
833.404,75.4216613716149
833.522,73.58303393254073
833.64,85.1472785806775
833.759,95.81656439905149
833.877,124.0009038885991
833.995,146.85291856095535
834.113,167.92077544055246
834.232,188.94913794555313
834.35,208.4952127289266
834.468,220.7477810187937
834.586,230.13714584545727
834.705,231.22088296649326
834.823,226.4102477931568
834.941,211.3173615375691
835.059,196.07036272786868
835.178,190.02682712163127
835.296,182.26467679677904
835.414,179.14148751088794
835.532,188.3776055843043
835.651,202.27952452352162
835.769,219.32949541079094
835.887,231.87037538896942
836.005,256.68831164420413
836.124,288.34434313753394
836.242,302.11898934947834
836.36,318.8572719250592
836.478,332.217199522285
836.596,343.2143565567403
836.715,353.1015568812389
836.833,366.8441684611488
836.951,387.49413934841766
837.069,407.1103440019201
837.188,411.3611806900544
837.306,424.93496110113233
837.424,435.31999692346585
837.542,438.9604440012106
837.66,444.05630233436676
837.779,450.4707753861378
837.897,457.5848155374758
838.015,455.9750461650043
838.133,447.33064475790087
838.251,447.69490135945534
838.369,457.3301536320055
838.487,462.93856607771573
838.606,474.15909973554733
838.724,478.35885417259976
838.842,482.6399938910373
838.96,470.71074399908525
839.078,459.36850709414625
839.196,453.77951694245394
839.315,459.7022151024498
839.433,462.6621426996751
839.551,461.8549707298008
839.669,457.46511477724243
839.787,450.0891116385367
839.905,442.73735092407327
840.023,439.3899192139387
840.142,437.1481152094318
840.26,429.82146272007634
840.378,425.57359810950857
840.496,414.65733523054246
840.614,403.79908100958505
840.732,396.439528087329
840.85,395.3509708360684
840.968,398.37929670169115
841.087,405.8976658573572
841.205,412.17793977492806
841.323,420.9880838223691
841.441,434.3609984325807
841.559,448.782397891277
841.677,463.44448999066617
841.795,472.87454745802063
841.913,490.01023263100274
842.031,506.2394242974915
842.149,512.0296549250194
842.267,524.4527859854477
842.385,546.9979949679538
842.504,564.8548922621484
842.622,579.1914432359965
842.74,582.3202020020526
842.858,594.7182248373725
842.976,591.344819101264
843.094,578.1056124993547
843.212,569.8040682351075
843.33,563.1873724557088
843.448,554.0979494035828
843.566,553.1877471306776
843.684,553.7433457235733
843.802,579.8617148792396
843.92,583.3047593595813
844.038,594.196288688408
844.156,596.7458266752434
844.274,605.2304295971439
844.392,604.512435116447
844.51,601.9970380383477
844.628,593.6729829515903
844.746,592.7523910682962
844.864,561.7556087088119
844.982,536.4116402021411
845.1,508.7204855482842
845.218,486.9808460459423
845.336,450.8403407427345
845.454,417.8019999416912
845.572,382.6433128203014
845.69,358.878565092851
845.808,337.1510468026297
845.926,316.97331206219195
846.044,305.12371584989245
846.162,292.0117819752553
846.28,268.88512948589965
846.398,242.4918103298777
846.516,210.05606693143153
846.634,187.91209842476033
846.752,166.84518619514535
846.87,141.35662894388534
846.988,130.15811498266845
847.106,121.95884213521913
847.224,108.98571553071946
847.342,99.38100634653814
847.46,85.83598004748785
847.578,81.18927278525052
847.696,75.24075155439071
847.814,82.98960943045057
847.932,96.78328331886786
848.05,112.44905568657765
848.168,129.22556764787083
848.285,146.13214268944864
848.403,153.6811443095926
848.521,161.11499441458508
848.639,166.02070599143906
848.757,187.97749981937534
848.875,201.48321139622954
848.993,209.2226892068499
849.111,213.73965619495937
849.229,215.95878768523323
849.347,220.92683692442478
849.465,221.11133638006663
849.582,224.11142025129288
849.7,229.92016213117736
849.818,234.89686937902746
849.936,237.81643376973477
850.054,237.2710630955071
850.172,248.70231579790274
850.29,259.5404949072248
850.408,265.51200734988015
850.525,274.98222109123685
850.643,275.6437768239356
850.761,282.1745966258985
850.879,285.85433417677945
850.997,293.49337908696793
851.115,307.8077486724812
851.233,314.18272431860055
851.35,320.4243666313863
851.468,339.7880868662497
851.586,356.36089801020375
851.704,384.5856572061057
851.822,427.6493774409688
851.94,497.36504572777983
852.057,564.7257356596126
852.175,635.9383736433936
852.293,695.1285008046636
852.411,753.135078182384
852.529,800.6697940882425
852.647,841.5854623750535
852.764,880.8660657267993
852.882,910.0462361781122
853.0,919.9199131229316
853.118,925.18146885563
853.236,913.37462631993
853.353,889.4742772907239
853.471,868.7531490407387
853.589,840.7445749033075
853.707,805.8814553113308
853.824,779.3187686197871
853.942,747.5067312788926
854.06,717.095559738864
854.178,675.2289769434242
854.296,625.3974590830491
854.413,577.4066338633666
854.531,517.4409168687922
854.649,453.6613470603649
854.767,405.0783140484742
854.884,354.44160138290397
855.002,306.8776159900608
855.12,251.55865224223936
855.238,209.16522961995915
855.355,170.77613600200786
855.473,129.53148832128272
855.591,96.76648413869353
855.708,72.70068852733895
855.826,48.60449116334514
855.944,26.73515879312111
856.062,-0.25369595971173375
856.179,-17.489316990704797
856.297,-27.43062538570616
856.415,-33.63424355170135
856.532,-34.11206743283397
856.65,-37.915533352776286
856.768,-38.02383487628533
856.886,-40.09942957333561
857.003,-42.791801766881534
857.121,-41.3562125610561
857.239,-32.16883973101463
857.356,-19.66963088882893
857.474,-8.762032522931932
857.592,4.199659895244821
857.709,27.537906466207986
857.827,46.12932374596772
857.945,66.05001421371648
858.062,91.59573232925501
858.18,120.56682377494057
858.298,157.34039044591276
858.415,188.68604985203103
858.533,220.00227202871207
858.651,253.9020439889427
858.768,268.73774668510396
858.886,280.2487740565898
859.003,286.2221390904132
859.121,282.36953009826254
859.239,281.63467002386096
859.356,253.33790518755475
859.474,236.6134347235428
859.592,213.2300898006563
859.709,184.83289206391692
859.827,157.23396272544593
859.944,133.85148360342527
860.062,119.46640707880724
860.18,114.06920934206806
860.297,97.73694667026413
860.415,106.41507360884987
860.532,106.78410963834483
860.65,113.39037510506935
860.768,110.94036351551688
860.885,113.80810084371336
861.003,120.21869531476693
861.12,126.05612961266027
861.238,131.17668079367047
861.356,141.26606314351204
861.473,149.4394281773363
861.591,149.9721005704681
861.708,144.81299807182506
861.826,139.33441505370166
861.943,127.76319134293749
862.061,120.96859100879662
862.178,119.04758374824874
862.296,120.7915115526358
862.414,130.3276471492306
862.531,130.8023108843535
862.649,128.92632526882716
862.766,129.47111887408022
862.884,127.31115057457137
863.001,124.94425586813614
863.119,116.2171880015278
863.236,112.93081277561203
863.354,111.47560638086499
863.471,109.99875496447284
863.589,113.9608645870417
863.706,127.04505213168858
863.824,147.9811877282834
863.941,159.44979085734576
864.059,167.42748489549916
864.176,168.6709797994534
864.294,161.5092798982128
864.411,153.80472285411517
864.529,148.91055542040726
864.646,150.27612824643973
864.764,160.43737206814316
864.881,167.76571545694617
864.999,183.18410213579244
865.116,191.6700212821711
865.233,210.21568068828998
865.351,222.52497645804527
865.468,239.37106876459728
865.586,250.27084072482896
865.703,255.28143519588323
865.821,250.09029806520587
865.938,247.96669340206097
866.056,239.86473376056105
866.173,242.85368320997017
866.29,245.60453742128405
866.408,254.62119249839898
866.525,264.1278908655572
866.643,272.6112126093389
866.76,277.7499456085321
866.878,277.4003669194135
866.995,266.1607449402518
867.112,261.6709065108735
867.23,254.73085163127877
867.347,253.52499588588324
867.465,251.8810449023924
867.582,258.2284359102438
867.699,259.5429264851948
867.817,257.1145599172887
867.934,257.7926868558762
868.051,267.74527266892244
868.169,282.417339001449
868.286,300.3950330396034
868.404,308.33896084399146
868.521,321.2326721981631
868.638,333.4120978380491
868.756,353.0668481532598
868.873,381.03848158535357
868.99,413.72872973606195
869.108,454.7246055923981
869.225,490.0832520115048
869.342,528.409863798577
869.46,575.5226227717966
869.577,609.2873297969643
869.694,639.3542013242966
869.812,657.0392546698105
869.929,658.4437885348048
870.046,655.6708332223095
870.164,645.020821632758
870.281,634.7482992206957
870.398,622.7632226960793
870.516,599.3712197645368
870.633,580.6753207290983
870.75,547.8685991828374
870.867,518.8826568573559
870.985,496.8958487310084
871.102,466.91769861331886
871.219,437.618336374417
871.337,411.3536061701472
871.454,394.97026124726267
871.571,375.2873492248111
871.688,342.7481601460826
871.806,329.4167632751463
871.923,317.8117733306168
872.04,292.36695654626044
872.157,261.09616573592996
872.275,243.83576453598926
872.392,225.6593460200312
872.509,204.51149893264463
872.626,177.8701453517517
872.744,162.6971900392569
872.861,150.33895334148076
872.978,125.1504136134017
873.095,104.79131111475994
873.213,92.89887528278487
873.33,80.29561693998735
873.447,68.80837591320707
873.564,58.20858077387267
873.681,46.99896986922143
873.799,32.51058345150125
873.916,23.164852093705427
874.033,19.66255290901756
874.15,8.925627517545356
874.267,2.084466652027718
874.385,-10.581291237367456
874.502,-14.144696763954007
874.619,-25.198426208068092
874.736,-31.53544735961361
874.853,-23.808758238376676
874.97,-22.57352056455504
875.088,-8.725761338047747
875.205,2.48195729268644
875.322,3.1440721172158135
875.439,3.931667388011207
875.556,-4.16570162294543
875.673,-15.653841341377834
875.791,-21.08532454530273
875.908,-25.678864095521426
876.025,-22.029249055797916
876.142,-21.691084686542787
876.259,-23.39130283661914
876.376,-24.830239398218907
876.493,-24.30458474870194
876.61,-21.86293036746443
876.728,-13.361969699886254
876.845,1.3993867969827658
876.962,5.496280423107368
877.079,5.0591076287871735
877.196,6.777183889530063
877.313,1.1192134663502729
877.43,-7.158309155179219
877.547,-12.567453125424286
877.664,-17.591951401183408
877.781,-12.47406535929058
877.898,-4.2267876531997155
878.016,-7.447540484875887
878.133,-4.537784840253067
878.25,-4.018469188311522
878.367,-8.568712114690934
878.484,-10.434482537009176
878.601,-11.673858890140476
878.718,-11.497559629165645
878.835,-15.301200530800488
878.952,-23.957075852668815
879.069,-25.50810508441728
879.186,-28.712499245139572
879.303,-33.89534372406223
879.42,-34.71699653582441
879.537,-35.22583472661118
879.654,-36.67693986626536
879.771,-41.31681883897842
879.888,-38.36299615445766
880.005,-38.39973030724516
880.122,-38.6416094111263
880.239,-39.08863346610114
880.356,-39.74080247216966
