wavelength_nm,intensity
792.446,218.63866710993
792.565,184.07139438265727
792.684,154.30715195841486
792.803,129.3459398372027
792.922,109.18775801902076
793.041,85.55832078958358
793.16,72.45442468568743
793.279,77.72022555148823
793.398,95.37910001036263
793.518,112.55485758612016
793.637,147.90464113590366
793.756,175.92542035668282
793.875,186.62325585451828
793.994,190.7427363739988
794.113,176.76351559477803
794.232,158.57303940430194
794.351,147.2492298804925
794.47,135.8838619151246
794.589,131.090788322051
794.708,125.19728182854453
794.827,125.1098359410986
794.946,130.02065845192112
795.066,133.08905672031938
795.185,134.08732511858776
795.304,136.39122122248392
795.423,129.2232558545185
795.542,118.7894896207523
795.661,109.00334243460509
795.78,104.70550693676955
795.899,102.19122122248389
796.018,97.9313457019774
796.137,86.29291677667143
796.256,71.85857331090858
796.375,62.57201117740662
796.494,60.31460663388269
796.613,57.488966106602376
796.732,57.07606904752316
796.851,65.90799520702132
796.97,73.19866056462774
797.089,74.59235622526448
797.208,89.25358435343387
797.327,106.81784278463351
797.446,117.55352978726165
797.565,127.0892167898896
797.684,130.03356180117544
797.803,127.95453018908465
797.922,121.14043364192875
798.041,107.90728947572526
798.16,109.56332279869937
798.279,101.36134746366477
798.398,94.17582234508033
798.517,104.1487387849374
798.636,112.20304050617982
798.755,118.1950045650847
798.874,118.42333226035322
798.993,115.40923571319752
799.112,118.36743353833606
799.231,112.10571794356099
799.35,106.95395905874238
799.469,116.583152554876
799.588,116.350008388672
799.707,113.81037071597453
799.826,109.97462914717318
799.945,106.04018627967046
800.064,112.98799449441879
800.183,115.14099751436191
800.302,121.01174945205396
800.421,136.85219835944312
800.54,144.012127786313
800.659,154.3253039664297
800.778,160.1752766833429
800.897,171.72048749549418
801.016,171.59643423838128
801.135,166.77281388170127
801.254,164.61326278909058
801.373,173.47708831985642
801.492,173.0292255389339
801.611,169.08352726017588
801.729,166.48588092946977
801.848,169.0847713953004
801.967,146.46634584381502
802.086,123.1362319806414
802.205,98.84421335556313
802.324,81.25414347088295
802.443,53.249745906416685
802.562,27.308616700459748
802.681,13.328666875880044
802.8,4.8837469696843945
802.919,-8.303777839089935
803.038,-12.866917311158126
803.157,-7.777139906137303
803.276,-5.965087167714799
803.394,-5.908521960450029
803.513,-8.567493956311163
803.632,-10.597344506320288
803.751,-17.58530786625993
803.87,-19.823824852241604
803.989,-22.698661084171324
804.108,-13.987529524981579
804.227,-14.93745870624944
804.346,-9.32419010396981
804.465,-10.999492437762814
804.583,-8.237691200491058
804.702,-8.795369402537347
804.821,-8.51718065588473
804.94,-15.24701442106486
805.059,-11.092704709917255
805.178,-8.68659927689802
805.297,-3.078357520132485
805.416,6.364813989972354
805.535,22.002748526340742
805.653,30.603130608289092
805.772,33.52190255268986
805.891,39.424681425842024
806.01,46.975044829649164
806.129,63.98641118955868
806.248,91.84966105791734
806.367,125.48913333101741
806.485,154.12389904829445
806.604,179.52352812871214
806.723,196.0746723606452
806.842,209.0033057700677
806.961,206.0332378807891
807.08,197.9791873075281
807.198,188.94764755677795
807.317,165.73428962420945
807.436,149.60318277389194
807.555,143.66341791491638
807.674,149.71412924641703
807.793,155.8981739112511
807.912,171.7211796150461
808.03,197.1433195179755
808.149,232.74381439925978
808.268,261.2750452112799
808.387,288.0564924735165
808.506,299.6258185236321
808.624,302.1605125391158
808.743,277.2051632645563
808.862,250.79007373025667
808.981,228.02173744271033
809.1,207.63348773525047
809.219,193.09545447800704
809.337,184.6188930822357
809.456,174.7553186994513
809.575,172.60083522575786
809.694,173.97362447933705
809.812,179.75507174157448
809.931,194.01097787827078
810.05,197.95346410154735
810.169,206.631015259889
810.288,213.47133698100131
810.406,212.4320050224598
810.525,204.52514059638577
810.644,207.83559218762764
810.763,222.43348966631532
810.882,233.48506679868274
811.0,238.3435703379767
811.119,249.67566695086376
811.238,267.73070728669455
811.357,282.25587749265515
811.475,288.5308312483992
811.594,299.8153088136671
811.713,315.80627988542847
811.832,320.46997822991705
811.95,321.0791311198602
812.069,320.78958271110207
812.188,334.94072694303657
812.307,346.1974988805987
812.425,348.54171670560663
812.544,350.3171033617833
812.663,355.00937313484303
812.782,362.71376412002394
812.9,367.5835230705726
813.019,378.6757928436318
813.138,397.20356045218875
813.257,410.408384337802
813.375,420.6210004312072
813.494,425.31240440340036
813.613,435.6566222284074
813.731,443.4216192741937
813.85,443.70176783513136
813.969,444.03386444801697
814.088,438.88024677518814
814.206,432.47554685127716
814.325,429.6535309100504
814.444,417.6470993844082
814.562,419.46144707954534
814.681,412.24289434178235
814.8,412.395770175448
814.918,410.036957697425
815.037,398.92489846615535
815.156,390.02409464614107
815.274,389.16052026335603
815.393,388.9237857074109
815.512,404.06973513414954
815.631,416.1308360760398
815.749,432.51661234260524
815.868,437.2236007303828
815.987,430.8474722350435
816.105,417.1960190643795
816.224,402.19478234393205
816.343,391.7528529827921
816.461,386.311789422518
816.58,377.56163495315315
816.698,361.68593935824714
816.817,354.04920480230203
816.936,342.2436390775256
817.055,326.25192616660183
817.173,307.4385682340332
817.292,301.2624397386941
817.41,297.9867441437883
817.529,297.4591004969345
817.648,289.58167330029744
817.766,296.18389978331413
817.885,295.4787669589715
818.004,293.438569199564
818.122,296.4018346436196
818.241,304.58761091018613
818.359,305.9049889083543
818.478,321.72916402433634
818.597,332.2577468318732
818.715,351.7198946589416
818.834,363.5319189645742
818.953,373.45151628248385
819.071,384.01104235964124
819.19,382.4151261512975
819.308,376.32673890475826
819.427,378.97238026395416
819.546,385.7613857936567
819.664,392.46783445640307
819.783,393.45557138770954
819.901,382.3287263665243
820.02,361.31770999125683
820.138,321.8762588818062
820.257,273.8146855529865
820.376,228.61037158717124
820.494,194.89052014811048
820.613,177.93690247528346
820.731,185.88371770288927
820.85,192.84525154521344
820.969,214.38167716242936
821.087,230.37091663245906
821.206,247.63634657867937
821.324,260.24809687122024
821.443,259.0096307135449
821.561,259.34432472902984
821.68,248.28248194797789
821.798,221.65094219722903
821.917,197.9059825330602
822.035,170.81816572603435
822.154,157.79874718740692
822.273,154.130843800295
822.391,152.35125210149496
822.51,159.23486386589863
822.628,163.00505571688245
822.747,172.9007886934075
822.865,181.63808011149092
822.984,183.55026330446609
823.102,184.15681879181363
823.221,188.0741967899838
823.339,191.3404925370716
823.458,198.51155018892143
823.576,206.496460654624
823.695,214.77054860950403
823.813,219.6965846163321
823.932,216.91266391320346
824.05,208.7616436429755
824.169,200.5967705588948
824.287,194.8656637085803
824.406,194.98217590588484
824.524,199.77920758370874
824.643,203.23078471607803
824.761,201.35855232463774
824.88,201.7148913617687
824.998,206.88768061534978
825.117,200.56609757455857
825.235,196.07914656839932
825.354,200.3766111466558
825.472,202.21260386344045
825.591,198.15162688325546
825.709,192.21705682947731
825.828,191.06517075838303
825.946,188.73233230633636
826.064,180.6644289192248
826.183,176.52552986111766
826.301,179.5857650021449
826.42,176.93084862802056
826.538,179.23956861753265
826.657,184.27296393172003
826.775,191.06306920261744
826.894,203.20468962503003
827.012,205.7004226015552
827.13,203.61433739626239
827.249,203.33864180135913
827.367,199.68892023242987
827.486,196.85564887995088
827.604,199.40246410755847
827.723,209.6912706771575
827.841,226.91167897835822
827.959,241.26542061289234
828.078,257.79232242058646
828.196,276.9408692499254
828.315,293.6928792827274
828.433,295.285581956222
828.552,285.67568722711906
828.67,259.5662253984491
828.788,226.47754279055823
828.907,187.44122836107053
829.025,142.56101299534876
829.143,108.85527944047779
829.262,85.03602991553306
829.38,71.75809630936135
829.499,67.91473218323539
829.617,67.88435062864176
829.735,76.93544047172085
829.854,87.11652538956166
829.972,108.77410758203546
830.091,147.60840190863155
830.209,193.08090032127905
830.327,242.38293246380485
830.446,300.682683309224
830.564,345.5968406660658
830.682,375.23004564195526
830.801,384.2468004013945
830.919,369.3542478015264
831.037,337.5586648986281
831.156,288.1119997446473
831.274,233.61944714477892
831.392,192.43944865746477
831.511,169.97200428270466
831.629,160.44828285166744
831.747,152.66135795742673
831.866,143.68222527097828
831.984,143.7888068702441
832.102,139.2347824089038
832.221,132.92145058825608
832.339,120.87565123514088
832.457,122.59781724999087
832.576,117.14472260771464
832.694,108.30918990424385
832.812,105.74509056709945
832.93,107.54187569450981
833.049,108.17989163214301
833.167,99.10507006542504
833.285,90.30825066217658
833.404,92.44863192725184
833.522,104.2546370034044
833.64,106.41245966092119
833.759,117.78488359853837
833.877,130.88576498641504
833.995,145.6840116099795
834.113,157.31556303569792
834.232,172.68222571656105
834.35,186.81717581906926
834.468,203.9912913696405
834.586,206.07505701651536
834.705,212.13025123481887
834.823,214.47375714143408
834.941,208.01899464978084
835.059,203.24475163864707
835.178,199.55449131149598
835.296,191.2235383436523
835.414,196.44669792992113
835.532,212.165095611428
835.651,233.69648030592208
835.769,249.71790829045955
835.887,261.9748341104949
836.005,274.6222361210065
836.124,293.0514563133364
836.242,300.7014557264456
836.36,317.7055676936674
836.478,339.27071862192815
836.596,364.6453933597129
836.715,379.72136679879645
836.833,391.7869506274902
836.951,413.9901967938464
837.069,427.05145161821116
837.188,428.2261263559957
837.306,431.1679006608798
837.424,440.07244552853456
837.542,451.9103237295227
837.66,453.3170330993422
837.779,462.3029632483825
837.897,474.1832656917955
838.015,477.12850320014365
838.133,475.57677101152217
838.251,474.7358613337231
838.369,477.64127200224436
838.487,475.61594674002976
838.606,467.9109677981614
838.724,466.46746071776505
838.842,463.75468956810477
838.96,455.49300066952696
839.078,445.92222086185814
839.196,444.909016811765
839.315,449.92178678764583
839.433,438.71031433928425
839.551,432.0148592069399
839.669,431.79126554645705
839.787,434.86723898554123
839.905,420.2375847189978
840.023,413.8555495000732
840.142,410.6103108179451
840.26,404.87502884577395
840.378,392.30944384329973
840.496,385.8425601395269
840.614,389.39472405480166
840.732,386.60143342462203
840.85,380.89645448275405
840.968,383.7083586577692
841.087,391.2146351271566
841.205,392.3287038043363
841.323,390.09818373692735
841.441,394.10662470847944
841.559,409.47697044193626
841.677,422.59536812344516
841.795,439.96744545863385
841.913,462.48584314014306
842.031,479.5193923368038
842.149,480.2992618797849
842.267,470.2540231976578
842.385,478.46592737267326
842.504,494.00164107149817
842.622,511.25596948893786
842.74,532.4860554821353
842.858,550.2676566268478
842.976,555.1012058235087
843.094,551.3442788296934
843.212,539.8297760783024
843.33,535.8304248420629
843.448,538.5167878915379
843.566,543.6247959626583
843.684,552.6193841203589
843.802,562.0970891611764
843.92,570.2354002626003
844.038,580.734750325063
844.156,589.1622389156644
844.274,589.1204634370015
844.392,591.8752247548753
844.51,586.1122371550002
844.628,575.9631023689776
844.746,562.6702446392321
844.864,542.4570405891402
844.982,519.9970832922952
845.1,494.13452859285263
845.218,462.23474445618047
845.336,431.83193001647805
845.454,406.2542238018839
845.572,384.4678595786316
845.69,371.89621397009785
845.808,356.4821441191398
845.926,338.67932967943705
846.044,317.88690485012387
846.162,301.7412332675639
846.28,275.68820237764464
846.398,254.3823576349114
846.516,235.99339600906114
846.634,220.75594953472597
846.752,201.99729093917864
846.87,179.50703061202967
846.988,162.963956432067
847.106,148.03416261054406
847.224,130.43173455294735
847.342,119.25770419702383
847.46,114.4035132162444
847.578,113.779584448375
847.696,119.4573132374678
847.814,127.20153496632915
847.932,141.61251639851065
848.05,146.3086396609932
848.168,157.37878889750158
848.285,164.7112757963476
848.403,178.90783195926292
848.521,192.45503747282785
848.639,200.79791398206385
848.757,220.00572555623495
848.875,238.72955444642344
848.993,249.42048290371156
849.111,249.89842434801272
849.229,251.76251297846125
849.347,257.2889392712475
849.465,246.81363396230233
849.582,244.78421609924453
849.7,251.784235465624
849.818,260.89680894455745
849.936,263.91154692565533
850.054,263.1020424825108
850.172,271.97825232508046
850.29,286.1090076221956
850.408,278.6882477677955
850.525,287.6874013333088
850.643,300.3480267602941
850.761,309.16622794485505
850.879,307.2242559692428
850.997,316.1151844265309
851.115,320.87710855481464
851.233,318.0485564926223
851.35,314.84684425726994
851.468,320.3507597275453
851.586,342.4226405657861
851.704,369.06335257285787
851.822,405.93090440676934
851.94,462.2902311324555
852.057,524.8772634858473
852.175,576.3820447569881
852.293,633.9275186688214
852.411,684.4461527538152
852.529,727.3968214708437
852.647,763.0418624822446
852.764,791.0591978659397
852.882,819.7163600894619
853.0,849.3579378973996
853.118,858.3432386490601
853.236,855.3371974093787
853.353,839.176177814719
853.471,815.3614785663796
853.589,788.5060866773474
853.707,745.5009112385318
853.824,716.0178137217943
853.942,691.1918590621996
854.06,653.4741295108302
854.178,617.1979584010192
854.296,570.2196227890438
854.413,526.7469148826958
854.531,478.10797321011444
854.649,425.4066938751953
854.767,390.2110422459038
854.884,347.9824901837121
855.002,296.19116755875
855.12,254.36174969569277
855.238,214.91068681099063
855.355,173.31330357996816
855.473,144.19557402859954
855.591,117.77124568883914
855.708,93.81701992884794
855.826,65.47957729744485
855.944,37.25071311647611
856.062,10.21569316499103
856.179,-8.81671694579868
856.297,-23.727012129657204
856.415,-21.881474073253713
856.532,-24.855505326201417
856.65,-30.38439853532971
856.768,-29.18315730148472
856.886,-27.283503352293863
857.003,-29.588447571514536
857.121,-21.236142559212098
857.239,-14.581457466527347
857.356,-6.672697230104252
857.474,-2.81261971417342
857.592,3.7318633764189393
857.709,20.9811674911372
857.827,41.73558017898662
857.945,63.17491496604426
858.062,94.07250808021237
858.18,125.55313329121756
858.298,150.9465404026666
858.415,170.58279025952112
858.533,199.4753171726528
858.651,226.48039819833863
858.768,240.99976493831014
858.886,255.08536544451542
859.003,267.2480222277768
859.121,272.00721580757477
859.239,268.9014743224377
859.356,245.46672850829628
859.474,228.77657143874353
859.592,206.6517823345588
859.709,182.1408460442269
859.827,169.66627339025865
859.944,154.81767476226437
860.062,138.83487700007095
860.18,128.5308671166652
860.297,115.15326415966636
860.415,111.74189496890114
860.532,112.41797166558175
860.65,115.06287953109353
860.768,124.39696488578275
860.885,128.4929550023767
861.003,127.44435637438174
861.12,121.97324692387582
861.238,123.37226734349962
861.356,117.82237001420563
861.473,123.03351164595048
861.591,128.4515796846217
861.708,135.24540529905045
861.826,143.18814866239694
861.943,141.3161734110248
862.061,132.09095140640613
862.178,124.81724455330271
862.296,109.5695117261737
862.414,104.9529477302138
862.531,110.87664347451368
862.649,119.842763461238
862.766,135.82187046094919
862.884,142.62435408403695
863.001,152.09783337812024
863.119,150.4743429752338
863.236,142.91578763728245
863.354,141.1148080569069
863.471,146.04283280553554
863.589,156.38297876628536
863.706,163.42182602573644
863.824,180.75850878302305
863.941,194.27960712472543
864.059,194.04659291231542
864.176,191.6092496955764
864.294,188.0290493359803
864.411,177.19343772097264
864.529,163.7924581405968
864.646,156.21139198013407
864.764,168.61387560322112
864.881,170.7834587934078
864.999,183.32706795762059
865.116,198.9278199789763
865.233,218.58831226007243
865.351,238.14231103467517
865.468,248.90063881360697
865.586,259.6468453804176
865.703,266.6874242416006
865.821,264.71155288633344
865.938,261.54347373885867
866.056,256.65418247017175
866.173,251.49562713222076
866.29,246.0963791535773
866.408,244.67808355588602
866.525,244.5740736724807
866.643,247.06227158128308
866.76,247.469950009566
866.878,242.4611782213986
866.995,233.5857397665645
867.112,225.48952209095114
867.23,221.9205771426107
867.347,223.03561487825306
867.465,225.78441884766193
867.582,236.5514046352526
867.699,239.07077137522424
867.817,245.02563595069347
867.934,241.7631845088465
868.051,242.78817895444524
868.169,249.2590608459316
868.286,250.7048345123097
868.404,256.1142445423243
868.521,268.1600182087025
868.638,285.7356620049509
868.756,310.6576261475194
868.873,330.27396258446015
868.99,356.9084808395827
869.108,387.5412674929736
869.225,415.4398550121653
869.342,443.9600875530019
869.46,474.7357313492498
869.577,509.7148383489608
869.694,531.3052007599273
869.812,547.5899354652662
869.929,561.5257524216875
870.046,571.9507468672862
870.164,571.0562607934046
870.281,561.2267097844579
870.398,550.6785440568967
870.516,530.0637116626687
870.633,502.6220394416008
870.75,481.2669473071129
870.867,458.11878157955147
870.985,438.4130400944141
871.102,423.7324068343849
871.219,398.5946307172129
871.337,377.45425719744355
871.454,355.85500921879986
871.571,337.50684349123844
871.688,323.86257386757313
871.806,304.6390834646871
871.923,284.8528224990305
872.04,268.3384230052353
872.157,236.2318157192323
872.275,212.9018318098527
872.392,189.02725915588445
872.509,169.62195057118032
872.626,157.4521398219742
872.744,147.5567879472272
872.861,137.7255053365496
872.978,130.28123571288484
873.095,121.86986652212052
873.213,110.82473109758993
873.33,90.68262597608944
873.447,63.27025939032937
873.564,44.41065008665862
873.681,25.43300641895958
873.799,13.644545712789897
873.916,11.260577241580934
874.033,14.023802248657393
874.15,11.621158092043027
874.267,4.22380500185098
874.385,-5.9028477094186105
874.502,-6.097919984647539
874.619,-8.084970056094583
874.736,-7.193274929961239
874.853,-6.611579148488239
874.97,-7.523729728307428
875.088,-10.448423862710577
875.205,-11.793726488959749
875.322,-9.878688048813924
875.439,-1.100882734165569
875.556,3.313934187460072
875.673,4.429028179103431
875.791,-1.4369153200055385
875.908,-8.55055930839823
876.025,-14.58089690141258
876.142,-18.25144317514083
876.259,-20.990088222586895
876.376,-17.644831243218917
876.493,-18.16791661197618
876.61,-13.544595559092599
876.728,-5.627635276820086
876.845,0.887118419137923
876.962,2.02931433180306
877.079,3.59008141888625
877.196,-1.6160899238727893
877.313,-7.511513653700021
877.43,-18.694065297048056
877.547,-22.09092127233316
877.664,-19.817880643470303
877.781,-17.429947348978246
877.898,-14.279782749169216
878.016,-13.056144101680758
878.133,-15.330151606249435
878.25,-15.044266555652307
878.367,-18.56274129305429
878.484,-20.402406640025625
878.601,-20.540807816251885
878.718,-15.239563156163953
878.835,-16.72130818093177
878.952,-19.28264909004495
879.069,-23.939063951554267
879.186,-36.76595707681331
879.303,-42.26117240469243
879.42,-39.16145633540434
879.537,-35.19185540091881
879.654,-24.358912500540747
879.771,-21.378743146824327
879.888,-17.27541196496915
880.005,-22.02593680740629
880.122,-32.633501483145146
880.239,-49.098105992185786
880.356,-71.41975033452817
