wavelength_nm,intensity
792.446,263.9191678431327
792.565,211.71795572192053
792.684,167.57518515914995
792.803,131.4908561548209
792.922,103.46496870893336
793.041,69.32297736694208
793.16,63.601765245729894
793.279,73.02773927170395
793.398,97.06756611153074
793.518,124.86410290806757
793.637,157.8545790985438
793.756,181.9983020422667
793.875,205.3818518258164
793.994,205.01648386044846
794.113,196.40263104659556
794.232,176.10566134962585
794.351,166.08488212884666
794.47,155.68488212884665
794.589,142.23379987776445
794.708,136.47622412018873
794.827,143.29613754010217
794.946,147.5480855920502
795.066,146.0034968474614
795.185,156.08401632798086
795.304,165.6623713063359
795.423,162.70566134962598
795.542,149.46929771326236
795.661,134.3619384059031
795.78,127.49007693404165
795.899,116.63120247516716
796.018,104.53769598166068
796.137,95.93167533133268
796.256,88.2462629644845
796.375,87.08050428528938
796.494,78.64018476022159
796.613,68.51197674762557
796.732,68.76809781201236
796.851,64.13947089721952
796.97,64.0070663177534
797.089,51.83480219168953
797.208,71.98908491374999
797.327,102.3758964965979
797.446,116.79400136835125
797.565,137.21210624010448
797.684,142.7211202027668
797.803,146.34961468490954
797.922,145.5694511583943
798.041,128.87327031586187
798.16,126.38228427852411
798.279,121.49822464811278
798.398,114.39251999605625
798.517,114.76214001932428
798.636,114.72656523739747
798.755,125.22172638620643
798.874,132.80866242679042
798.993,129.6908365626125
799.112,126.42062974605358
799.231,132.24825842733023
799.35,122.25683948955907
799.469,119.67581016217741
799.588,127.45062499063982
799.707,123.88691168057409
799.826,127.0565317038417
799.945,125.85385735481483
800.064,134.75421330881832
800.183,148.5558679641206
800.302,145.86141872331893
800.421,165.5886145041623
800.54,185.796329765525
800.659,199.1295861524289
800.778,216.60656548305553
800.897,227.6255361556735
801.016,227.8367146204992
801.135,216.6054688429008
801.254,213.1049589960382
801.373,219.21137555610218
801.492,224.31432891270305
801.611,229.38265023467207
801.729,225.3747810804507
801.848,220.81020196951977
801.967,189.77202978499582
802.086,160.21957188618637
802.205,136.2653823856453
802.324,105.02695139919638
802.443,73.91196838860833
802.562,45.3872466254056
802.681,21.459853968985087
802.8,9.516868770037611
802.919,-4.452134501570429
803.038,-6.528925492845556
803.157,-4.963260556878867
803.276,-14.900317933517474
803.394,-20.91319573744037
803.513,-26.653505669027997
803.632,-33.2989921700247
803.751,-36.228192746427624
803.87,-35.00577141314035
803.989,-34.70936343759656
804.108,-26.93703522234835
804.227,-20.52390565570485
804.346,-11.766791343832875
804.465,-5.291124851199882
804.583,-5.242215230506494
804.702,5.240557150872981
804.821,8.847106674643737
804.94,5.155031219209329
805.059,6.467271099073299
805.178,10.662192251204775
805.297,10.923989110597919
805.416,15.051155688580998
805.535,16.59060602700145
805.653,27.961896084906996
805.772,39.542273524813396
805.891,50.7502470191836
806.01,71.40054269206098
806.129,103.6276419189398
806.248,153.82953174499423
806.367,198.4473533447037
806.485,226.95596162203378
806.604,250.34249197728593
806.723,270.51430371781953
806.842,266.96923234147005
806.961,258.7505678915275
807.08,250.5422930519746
807.198,249.2292563076598
807.317,231.20193384905906
807.436,209.77114818699496
807.555,195.90832789289595
807.674,194.03511798840725
807.793,195.75238427439479
807.912,219.68869817942982
808.03,258.4683021277549
808.149,298.8591614873352
808.268,334.84742344431794
808.387,368.8625252281404
808.506,380.7529516872875
808.624,374.133421436478
808.743,354.39008166185886
808.862,334.7818068223047
808.981,309.4990731082917
809.1,287.18343896137816
809.219,273.7665061131657
809.337,272.0716511870313
809.456,266.1144585985594
809.575,259.5347551875766
809.694,253.35245437399647
809.812,259.4550020452648
809.931,269.0926146515982
810.05,291.32589825360276
810.169,318.0327749292004
810.288,336.5673572325038
810.406,342.79025122411883
810.525,345.8018898044784
810.644,342.7953465666558
810.763,351.79572973575944
810.882,360.2246843334345
811.0,374.59130126877176
811.119,391.0817277279186
811.238,405.2890373039486
811.357,418.16214774577963
811.475,431.0768166291692
811.594,441.4607495818228
811.713,459.39533188512587
811.832,462.60264146115617
811.95,457.24718047441576
812.069,445.1142303101864
812.188,443.2531416178184
812.307,435.1842607176583
812.425,420.1967650988835
812.544,410.1928192636583
812.663,401.4780509176105
812.782,391.3918540001341
812.9,384.08314626014686
813.019,392.39781514353655
813.138,417.8285013429437
813.257,444.3752048583682
813.375,471.5937698456544
813.494,484.2538932744988
813.613,496.3235405128671
813.731,502.233014591062
813.85,508.6351293618977
813.969,521.6450363405256
814.088,534.7726922369025
814.206,545.7843308172623
814.325,562.7673979690505
814.444,568.9764391468129
814.562,576.4963028353978
814.681,579.881101588918
814.8,586.4035626801007
814.918,583.991824637084
815.037,586.9532467672277
815.156,584.7588247415273
815.274,592.4795542309782
815.393,590.5769070970528
815.512,590.6976365865039
815.631,610.5620890196778
815.749,617.5936410199513
815.868,622.2520328470644
815.987,631.3883467520993
816.105,620.8579939904678
816.224,602.5458230470183
816.343,569.0128728827898
816.461,544.6158534544924
816.58,513.9651543725154
816.698,483.0581782342616
816.817,467.61180815661425
816.936,454.92734284087146
817.055,441.1467736290249
817.173,423.18178883276244
817.292,407.9241633438593
817.41,403.3678365562547
817.529,379.19419375133407
817.648,369.4309405568032
817.766,374.9464752410602
817.885,375.4420965054038
818.004,377.87970911173875
818.122,377.3034689042208
818.241,382.4519040213778
818.359,397.48154054274346
818.478,400.8919110680009
818.597,380.65736336059945
818.715,405.6442461369222
818.834,420.454674082456
818.953,571.8730206965613
819.071,739.9259476245693
819.19,951.0547987720568
819.308,1125.9958423345615
819.427,1216.983013411127
819.546,1160.8109122535784
819.664,1021.1689730380801
819.783,797.48887026822
819.901,652.4700523192578
820.02,489.5012177451771
820.138,401.02332735810126
820.257,344.2492398401321
820.376,317.75577076223556
820.494,290.4055045806916
820.613,276.0249353688447
820.731,271.6556215682532
820.85,281.11314759450147
820.969,303.4035740536501
821.087,332.96153298033096
821.206,379.3688425563622
821.324,401.9242040804452
821.443,405.9167950417575
821.561,405.43492712861075
821.68,372.28206354446826
821.798,331.840888272014
821.917,294.2663796662264
822.035,262.25897062753825
822.154,250.48099881828728
822.273,237.7194772254865
822.391,247.65579113052115
822.51,265.117646161097
822.628,264.3950856072574
822.747,271.45607483696745
822.865,279.96208571169916
822.984,275.88368100201524
823.102,268.5247568118118
823.221,271.1589062146819
823.339,282.23028505478135
823.458,282.0332656264826
823.576,283.9210946830324
823.695,291.9812181118765
823.813,300.47683937621855
823.932,299.44951691761685
824.05,294.166783203604
824.169,295.48751269305427
824.287,294.58140235566464
824.406,284.55667729966035
824.524,280.2471037588077
824.643,279.8067942872192
824.761,268.72665797580385
824.88,266.8162186340856
824.998,268.28067106725933
825.117,273.0386299939396
825.235,281.7567620807928
825.354,289.31472100747294
825.472,292.2241950856681
825.591,295.61592024611423
825.709,287.37820817712304
825.828,279.95521472285054
825.946,273.62659356295046
826.064,265.69277759785564
826.183,266.64034691414616
826.301,273.2909465334672
826.42,267.2688188800609
826.538,270.75318473314826
826.657,276.0938276425128
826.775,273.11585583326263
826.894,267.5941610802895
827.012,253.03090788575793
827.13,250.59233001590178
827.249,247.73643612872968
827.367,234.23205739307272
827.486,228.54499467473198
827.604,235.68910078755997
827.723,247.08082594800686
827.841,261.18250781841033
827.959,277.65648406110813
828.078,312.7018888752344
828.196,346.90227204433927
828.315,360.6100145208036
828.433,362.1168911964023
828.552,347.424633672867
828.67,321.78951900647473
828.788,278.9033127514839
828.907,228.32865685475588
829.025,191.01921046040698
829.143,155.7672212009881
829.262,117.31474910707303
829.38,98.30541687756708
829.499,85.87438837200156
829.617,87.31409045003075
829.735,97.8572816478486
829.854,115.8533867167659
829.972,160.2291505209708
830.091,211.6972426178108
830.209,278.228433356418
830.327,372.9015709180156
830.446,456.6382198526111
830.564,522.0743346462426
830.682,564.5641290935537
830.801,559.9006767876181
830.919,529.8155794600376
831.037,468.691521093496
831.156,394.51031986981167
831.274,335.92652124353003
831.392,273.2890429635688
831.511,242.819530051573
831.629,237.2738266633866
831.747,223.1454392925163
831.866,225.01012551471956
831.984,222.29905416116523
832.102,224.50659752622556
832.221,217.66392444106947
832.339,203.89051542517748
832.457,202.6521713443503
832.576,202.46750691720268
832.694,186.81357842079098
832.812,179.19601356074293
832.93,178.11178203402812
833.049,185.04573232549512
833.167,167.4622040269566
833.285,166.37142480285175
833.404,161.24984051120617
833.522,167.39163035514684
833.64,173.79182376601918
833.759,193.69781555490198
833.877,216.39551309875498
833.995,241.82318915427112
834.113,255.73684982324505
834.232,287.57432001602865
834.35,299.74772094474315
834.468,313.09168464402046
834.586,316.49712020476943
834.705,327.2107808737435
834.823,317.92184414012
834.941,301.44762602121506
835.059,286.0392087681108
835.178,291.30438458859953
835.296,285.79553443506234
835.414,284.55161934646014
835.532,289.8427691929227
835.651,310.2559969614633
835.769,321.22247148325073
835.887,337.8694654855579
836.005,367.9926499640553
836.124,403.86042318714146
836.242,425.9905340725654
836.36,446.00722504456945
836.478,461.44209783475515
836.596,481.3583559063261
836.715,494.606215709499
836.833,510.38567724427355
836.951,528.1538833677924
837.069,534.7662453354669
837.188,540.9690834936177
837.306,551.3684584483053
837.424,561.2197814549409
837.542,571.0970784875503
837.66,578.7284880742727
837.779,587.755568656666
837.897,592.5965020529121
838.015,593.1950112067339
838.133,588.4610528280882
838.251,588.2872676096158
838.369,581.8745213521822
838.487,570.8245456575194
838.606,569.623920612207
838.724,576.1323864759858
838.842,576.6936661925781
838.96,574.7449891992139
839.078,567.9738013833389
839.196,574.0251243899747
839.315,567.8608629810265
839.433,560.6922725677491
839.551,555.0518206826104
839.669,554.3247887108917
839.787,552.5440770854931
839.905,544.9408546375837
840.023,537.1263767784187
840.142,534.7828945902495
840.26,528.1173344800022
840.378,523.2370557550362
840.496,512.0026644759573
840.614,506.7509571795622
840.732,500.88279966671644
840.85,490.45013998936827
840.968,483.96033745487716
841.087,477.6584137082649
841.205,481.28116528632796
841.323,496.548072708547
841.441,516.2825125982985
841.559,543.6178182889157
841.677,566.0189248453337
841.795,584.8970876788078
841.913,616.7449474819789
842.031,637.9088246011671
842.149,654.9878532355069
842.267,673.9543277572925
842.385,691.6697200279958
842.504,699.0630343766211
842.622,695.9515868204846
842.74,693.7518275760362
842.858,696.9572631367826
842.976,695.9583696932
843.094,678.8547143448553
843.212,670.679197524649
843.33,658.9842001849623
843.448,655.5723197283926
843.566,651.5682314796152
843.684,662.2472601139548
843.802,672.8102714322772
843.92,689.615706993024
844.038,695.9960343286625
844.156,707.9356690236084
844.274,718.9861262293769
844.392,731.5257609243226
844.51,731.2870406409131
844.628,723.0154199246031
844.746,701.8771325416265
844.864,675.1570269768313
844.982,638.9572677323829
845.1,605.720279050705
845.218,577.746493832231
845.336,542.6038774449257
845.454,509.5712177675774
845.572,482.58877454044557
845.69,454.8530845600668
845.808,423.8256196879129
845.926,400.689063906668
846.044,375.379347952263
846.162,353.92417745240346
846.28,327.6603489438859
846.398,297.3627542016021
846.516,279.1396183337772
846.634,250.69050843997852
846.752,215.9271128318943
846.87,190.96458302467602
846.988,162.4583302737349
847.106,141.78071079613642
847.224,121.34997982473283
847.342,104.55654388673972
847.46,105.01636318155
847.578,98.20544921329001
847.696,101.29396445594017
847.814,113.51946778570495
847.932,124.69946859356702
848.05,125.3621627160233
848.168,143.09886638986075
848.285,160.35280398195334
848.403,178.13832522036063
848.521,197.68707704990203
848.639,218.9016297452444
848.757,241.75687508127947
848.875,245.42510743030135
848.993,244.8803527663361
849.111,255.3330006997733
849.229,253.01508586264788
849.347,246.00193293028457
849.465,242.83207004121147
849.582,229.02151451144584
849.7,225.19537456609586
849.818,220.4497541012654
849.936,218.3552158875173
850.054,221.26587247896396
850.172,227.36181045569197
850.29,243.10017267484415
850.408,249.28269073815196
850.525,255.27906161531251
850.643,275.5706705877112
850.761,292.5350068328372
850.879,304.27596645458664
850.997,311.50870096811104
851.115,313.0557211959211
851.233,329.4235206445103
851.35,334.85798675976594
851.468,350.9920199745887
851.586,388.10181076516915
851.704,429.6730734172213
851.822,491.42182524676264
851.94,553.1350792408059
852.057,631.5444371309532
852.175,712.3061759734815
852.293,779.5103390584338
852.411,840.9049783338623
852.529,895.6537301634035
852.647,938.3505339409965
852.764,987.070714341966
852.882,1025.7103752624162
853.0,1054.4928933257238
853.118,1057.3845022981225
853.236,1040.6432108376212
853.353,1014.4863349615352
853.471,984.1822729382632
853.589,934.8453104820907
853.707,897.1204692380392
853.824,869.5783119766718
853.942,836.565159044309
854.06,797.4662918262322
854.178,744.309415950147
854.296,698.051241372763
854.413,652.027698830011
854.531,587.282078365181
854.649,523.8628648267579
854.767,472.38044782513145
854.884,413.0746542001285
855.002,350.45024585651095
855.12,292.5427206297767
855.238,241.57458934243624
855.355,196.92507277371067
855.473,153.96936124298497
855.591,113.77828956269133
855.708,85.6594098990715
855.826,50.17082201123959
855.944,21.100392206172263
856.062,10.53100251200331
856.179,-2.7553952045027943
856.297,-15.319265377017684
856.415,-23.20486213140672
856.532,-31.593790058893646
856.65,-36.42446457244928
856.768,-42.080483400557696
856.886,-51.00612318851423
857.003,-38.61337306240526
857.121,-29.100007504529422
857.239,-16.632039411477592
857.356,-1.2859753496813084
857.474,6.614868011419578
857.592,16.295999592979044
857.709,35.85161835233215
857.827,55.78695986850716
857.945,86.47612378016603
858.062,127.20066802104549
858.18,174.51926665687566
858.298,206.7563133657577
858.415,236.82892717034417
858.533,261.708467381857
858.651,290.89883010419237
858.768,307.6588897962249
858.886,319.8812871505953
859.003,336.5738143750957
859.121,340.0879866212411
859.239,322.5718558370835
859.356,297.93711033431117
859.474,275.5421916713657
859.592,249.369783830931
859.709,225.3618781549987
859.827,203.83882096391477
859.944,191.31662957369684
860.062,178.42300961205035
860.18,164.63934636036066
860.297,149.76737142035938
860.415,141.75513674009846
860.532,129.27883279576835
860.65,123.3912734401828
860.768,113.21367079455374
860.885,122.71658762944406
861.003,129.9234005682303
861.12,139.42804900485203
861.238,142.57945068822704
861.356,144.62695626770608
861.473,141.24069561341912
861.591,132.81720552190285
861.708,126.30020893688001
861.826,130.27931624796122
861.943,131.39089109150984
862.061,130.1093923419848
862.178,130.50668147124748
862.296,126.45202254856198
862.414,127.95840258691553
862.531,129.6119687724553
862.649,129.60579469825484
862.766,129.35633058076428
862.884,127.3311088875159
863.001,126.78380927218946
863.119,129.49798151833477
863.236,125.09180744413362
863.354,137.57567665997584
863.471,147.85868007495245
863.589,161.468090416336
863.706,175.85239253261136
863.824,187.54578555797747
863.941,193.87207901624407
864.059,191.74382701996524
864.176,182.39825900637032
864.294,180.64316718325162
864.411,175.67162514368272
864.529,168.94597055000128
864.646,175.28525102125502
864.764,188.8669557349329
864.881,195.89627949622997
864.999,205.3230058549295
865.116,220.64410450800113
865.233,243.4820862779555
865.351,271.45513298297453
865.468,284.23770349751726
865.586,300.7207069124928
865.703,310.64093976469775
865.821,301.75164880737907
865.938,285.6078123955149
866.056,274.8449283646031
866.173,270.7591006107474
866.29,283.40314298676185
866.408,285.3251074406985
866.525,293.85572990329297
866.643,301.2313740109093
866.76,296.80528651679396
866.878,288.7783332218128
866.995,282.8899080653596
867.112,286.9555954630189
867.23,292.7433607827561
867.347,287.49735986872713
867.465,290.02451912785824
867.582,296.3153147506258
867.699,291.9359805032634
867.817,296.2943085935632
867.934,301.74700897823504
868.051,317.44213360533104
868.169,333.8550071501758
868.286,337.1665819937219
868.404,355.4833516424627
868.521,368.5914632825454
868.638,394.0839905070437
868.756,427.2570372120616
868.873,462.48116616816174
868.99,506.9018319207986
869.108,552.8211989721368
869.225,602.401172084081
869.342,645.45646987135
869.46,690.5238888707402
869.577,735.0726931515155
869.694,761.2743112851049
869.812,771.2499553927202
869.929,783.1935648683007
870.046,788.1666115733185
870.164,788.1517794904576
870.281,771.996687667337
870.398,763.5073967100172
870.516,748.4354217700134
870.633,719.9149619815248
870.75,678.9364935350275
870.867,642.8679817984867
870.985,612.5613748238508
871.102,576.5430795375266
871.219,538.1637452901634
871.337,498.90129415968363
871.454,489.20074779110877
871.571,461.45258237491504
871.688,433.63342128772564
871.806,405.14499613127214
871.923,386.96479608304367
872.04,361.57247482269383
872.157,329.8485518307424
872.275,297.6899968041589
872.392,281.88468853082236
872.509,251.57028934839494
872.626,227.15459146466895
872.744,205.84278968483906
872.861,186.34051171453294
872.978,170.53433764033076
873.095,149.04158347954848
873.213,127.74363451357135
873.33,108.13313143504007
873.447,79.69479237956
873.564,59.52118668822185
873.681,40.90661273680509
873.799,20.323929532670775
873.916,3.163375846519749
874.033,-7.70900881738393
874.15,-4.400431784119711
874.267,-2.2266051452458338
874.385,-4.037091997332741
874.502,-0.7523022731912317
874.619,2.8360564131856005
874.736,-5.637291638824823
874.853,-11.94030713247509
874.97,-13.865421900395447
875.088,-17.737392444169664
875.205,-22.98585734694516
875.322,-28.838408788074815
875.439,-28.415911447967133
875.556,-22.14399971006328
875.673,-23.41662060650608
875.791,-26.271381524885435
875.908,-22.740527395297754
876.025,-30.860406604684307
876.142,-28.009329821894948
876.259,-23.761017631921845
876.376,-19.56758585459731
876.493,-15.986023504784223
876.61,-17.015540416418432
876.728,-23.64511740154917
876.845,-18.182605273109203
876.962,-29.188214832173784
877.079,-33.027534342082774
877.196,-35.17689464427396
877.313,-36.79764888671882
877.43,-27.72338262854551
877.547,-26.90204697121544
877.664,-22.22806480831064
877.781,-17.670077489974073
877.898,-21.389973203967834
878.016,-24.10648157573386
878.133,-21.44993617836208
878.25,-22.49573762223571
878.367,-16.60684003447244
878.484,-24.24252548144173
878.601,-22.606678399941643
878.718,-23.80158397417397
878.835,-24.397240936673146
878.952,-29.697349491739722
879.069,-32.89822875809495
879.186,-40.820882479990104
879.303,-44.463545412672374
879.42,-49.90916160516241
879.537,-52.80343136935395
879.654,-51.19741122280179
879.771,-44.7874834244941
879.888,-47.70553993429879
880.005,-46.93436582079036
880.122,-45.37453196548287
880.239,-43.02603836837637
880.356,-39.888885029470856
