wavelength_nm,intensity
792.446,263.21978800871574
792.565,207.03615164507934
792.684,161.49926852819618
792.803,126.60913865806629
792.922,102.36576203468937
793.041,85.85667112559847
793.16,79.8159784849058
793.279,88.7778832468106
793.398,106.69476636369363
793.518,130.8272338961612
793.637,161.99866246758972
793.756,186.2280996970269
793.875,201.7371906061178
793.994,206.28264515157235
794.113,193.19952826845545
794.232,172.5172771862044
794.351,159.60125987018705
794.47,146.275718744646
794.589,138.7389222078495
794.708,133.51467978360705
794.827,132.96749363642093
794.946,123.21251528144259
795.066,122.56749363642095
795.185,120.97095683988408
795.304,122.97615164507889
795.423,118.9796148485421
795.542,118.13978800871527
795.661,116.62030748923475
795.78,114.4791819481092
795.899,106.64454991347714
796.018,102.14498281391005
796.137,100.82983129875856
796.256,93.1709568398842
796.375,90.66273173165911
796.494,89.36749363642102
796.613,87.51939849661898
796.732,76.21468663484725
796.851,68.29560262604186
796.97,60.53921872685632
797.089,52.25310587133295
797.208,62.10736830293717
797.327,78.78918902910317
797.446,98.90759172599587
797.565,115.76313770820765
797.684,117.85987367178521
797.803,123.8639689427221
797.922,122.9840815296763
798.041,106.27562268805914
798.16,107.71348419276217
798.279,95.42147556759514
798.398,87.72946694242802
798.517,88.9231726029751
798.636,81.1471812938251
798.755,77.19370080718588
798.874,75.92853200885835
798.993,74.8122809594485
799.112,86.35577016977882
799.231,91.24557972642968
799.35,92.27997802766937
799.469,105.04857546310834
799.588,110.69769237906684
799.707,111.00222055043675
799.826,110.16562318068131
799.945,102.1714500533501
800.064,104.35303450177653
800.183,108.71643713202127
800.302,104.54823803066418
800.421,119.69692204619007
800.54,127.2897619058715
800.659,137.69385717680825
800.778,141.41829876809135
800.897,144.70464512127913
801.016,146.7139351974107
801.135,148.60547635579326
801.254,144.80177941893768
801.373,151.16777945177887
801.492,151.47663662747706
801.611,155.4720738897554
801.729,162.59911288363557
801.848,169.03957179093584
801.967,161.51293113113672
802.086,147.71789220293925
802.205,129.89947665136512
802.324,107.16422806877378
802.443,76.31241453566412
802.562,51.46622323512708
802.681,35.58180587129914
802.8,19.636261139322436
802.919,8.99957295132356
803.038,-5.299143896943247
803.157,-13.047750684035005
803.276,-16.53755237389939
803.394,-28.60141504402936
803.513,-26.21110686895159
803.632,-26.064659675842613
803.751,-21.536820685771282
803.87,-16.879632764571635
803.989,-15.09043509526715
804.108,-14.383076952589416
804.227,-4.292934822679493
804.346,-1.6329126341747826
804.465,2.074957443309513
804.583,-2.2350406619285104
804.702,-4.633677203377768
804.821,-7.000324212208965
804.94,-3.6490310464361806
805.059,-5.885590240848256
805.178,6.543781851482481
805.297,12.172667117552196
805.416,21.414868097861554
805.535,27.964530995805347
805.653,32.42939089403333
805.772,40.44388342832693
805.891,49.87410015986305
806.01,58.914960575891286
806.129,85.86080683675524
806.248,120.65942184698632
806.367,159.67791205450274
806.485,194.65706565656737
806.604,229.03362185603453
806.723,251.5452429905668
806.842,252.3382494064847
806.961,241.2204333115801
807.08,232.69309340715202
807.198,235.14843748540795
807.317,211.91806727794966
807.436,208.5534979362923
807.555,206.16728357298982
807.674,206.2278224564406
807.793,206.18533103686104
807.912,217.00431147875335
808.03,249.58433088168465
808.149,291.52365764392334
808.268,316.74783289101066
808.387,352.89841506450506
808.506,366.9970491860514
808.624,369.71819413010854
808.743,347.64539968022643
808.862,320.5509602086994
808.981,292.8798973605492
809.1,268.92138862495307
809.219,255.24426517074238
809.337,251.98359193298194
809.456,244.94283211513462
809.575,241.08735368256848
809.694,237.019754037881
809.812,240.13916738020635
809.931,243.9668058307568
810.05,258.66111094797395
810.169,286.0844203941954
810.288,307.0488553815426
810.406,313.51026006585937
810.525,313.17166475017615
810.644,310.49540709683055
810.763,309.62521004954544
810.882,309.3619394091868
811.0,310.6761579463173
811.119,323.35401284708416
811.238,350.7626036785871
811.357,372.10625944515493
811.475,384.23173339354116
811.594,396.82560561032574
811.713,408.23852544615795
811.832,413.38044961099445
811.95,412.0210750745323
812.069,408.6348607112302
812.188,411.99583249511414
812.307,405.987973110167
812.425,407.8242695693757
812.544,417.35060931862773
812.663,426.9046546955854
812.782,433.06822388206683
812.9,441.6214034581586
813.019,452.816141475809
813.138,459.98317386575377
813.257,471.3294270349194
813.375,485.5033858317905
813.494,498.81847016978736
813.613,500.956065330295
813.731,499.87461287175506
813.85,499.9446755647301
813.969,504.31084215380906
814.088,506.5809048467842
814.206,511.417201305993
814.325,516.930554042258
814.444,522.8127379473542
814.562,524.3234932810218
814.681,521.3251577055985
814.8,515.8714108747638
814.918,502.5276207538858
815.037,484.2808003299775
815.156,473.6833305554199
815.274,464.37763567263715
815.393,465.14293646085
815.512,475.3645143053398
815.631,479.79821336195084
815.749,485.99295137960064
815.868,497.05349026305146
815.987,503.92961356208673
816.105,508.3304121857973
816.224,494.2879207662178
816.343,479.29218259339154
816.461,453.4401673642882
816.58,414.0695374165699
816.698,378.4383014082456
816.817,357.85901345186943
816.936,350.61911943488707
817.055,339.57143321011233
817.173,321.6181192797096
817.292,307.14532482982634
817.41,302.911491418904
817.529,296.0161861465099
817.648,294.3269414801765
817.766,299.23423361037993
817.885,315.37962097867853
818.004,320.3073683324611
818.122,320.8763306238135
818.241,321.71230014247914
818.359,329.88572905327464
818.478,328.0386689931827
818.597,301.93784305231566
818.715,308.389671030487
818.834,320.03807913221715
818.953,439.9433836395747
819.071,589.3593338404323
819.19,748.2637906361975
819.308,868.7169111816486
819.427,912.134768022466
819.546,851.4761666512377
819.664,741.1395262446011
819.783,586.8790764871042
819.901,508.1871078316533
820.02,428.48707429386013
820.138,370.02592269471324
820.257,325.89083154811385
820.376,287.32453060472506
820.494,254.12100022410687
820.613,238.60924473526353
820.731,237.34164509057587
820.85,253.87404544588813
820.969,281.1034154981699
821.087,316.9120063296723
821.206,362.0383460789236
821.324,383.35429621778536
821.443,383.34643683283764
821.561,370.63814454745716
821.68,336.8649171971416
821.798,294.23541279054916
821.917,253.8725750506233
822.035,240.0586550596151
822.154,235.12871775258935
822.273,226.79185403863704
822.391,227.2930855627799
822.51,224.3596850522907
822.628,226.52671744223443
822.747,225.57340351183188
822.865,225.91273027407016
822.984,237.6849574692088
823.102,232.0719032790659
823.221,229.6519226819966
823.339,238.863110916096
823.458,242.5340394099357
823.576,247.72011941892708
823.695,256.0308747525937
823.813,261.5909807356112
823.932,260.24632481386664
824.05,244.08695027740345
824.169,241.17865799202258
824.287,242.0244782607544
824.406,236.82094788013578
824.524,233.17932226142213
824.643,230.51605162106344
824.761,230.25451258243635
824.88,223.51851466935034
824.998,226.20762498137233
825.117,241.52790412456304
825.235,245.7841140036847
825.354,250.39183903432152
825.472,259.4186116840061
825.591,259.2661635544699
825.709,254.80375871497696
825.828,243.38118071531085
825.946,236.66423042127232
826.064,235.69446627441994
826.183,226.79656359942908
826.301,223.40255702833423
826.42,223.09599634468526
826.538,221.89679496839568
826.657,230.28980138431376
826.775,241.31830563572964
826.894,237.22906096939647
827.012,225.35453491778185
827.13,210.03931622547435
827.249,193.7474741565435
827.367,178.66861910059967
827.486,174.58024023513207
827.604,193.82779210559508
827.723,216.88919678991084
827.841,218.7514672750923
827.959,225.24230918884498
828.078,235.48899525844178
828.196,254.16944756180476
828.315,264.7936228088908
828.433,271.22732186550047
828.552,269.7138347749242
828.67,250.06788015188044
828.788,215.93621124312244
828.907,181.407875316679
829.025,149.4282864243312
829.143,129.75814705478507
829.262,102.89177082106153
829.38,79.9941117109118
829.499,62.69106310146897
829.617,53.48281852988693
829.735,48.7514817099202
829.854,44.94409690208141
829.972,56.68889144820487
830.091,77.14117863561265
830.209,90.48528123327984
830.327,117.27572918622202
830.446,144.69866672885473
830.564,170.34204521532718
830.682,183.9096260866473
830.801,199.34666548818575
830.919,206.79236289838227
831.037,202.8259390964575
831.156,191.23440706942435
831.274,174.76668456620064
831.392,156.19073695475157
831.511,145.55072007923312
831.629,140.30377679678836
831.747,147.390166847677
831.866,152.22893785094652
831.984,150.7179253044325
832.102,158.05106860207425
832.221,142.11678091168483
832.339,133.99858718445617
832.457,134.9646824226313
832.576,131.94931696088918
832.694,131.34067525422375
832.812,127.81969825977392
832.93,125.8771863628989
833.049,116.96008802233852
833.167,101.78005731661335
833.285,91.86399415544332
833.404,94.90015951699542
833.522,104.1830956134043
833.64,113.2785609557075
833.759,121.39582472613945
833.877,145.04734807407493
833.995,155.6139322722052
834.113,177.6220749118939
834.232,198.22935175071686
834.35,223.21325196616317
834.468,235.21446819892554
834.586,239.7646021806059
834.705,230.0463378938881
834.823,229.9324026114994
834.941,212.11630282694648
835.059,200.1374324796231
835.178,191.58540195913972
835.296,182.7675705728554
835.414,170.39129762812934
835.532,175.97606364444204
835.651,182.03702013694502
835.769,201.40447013594138
835.887,214.10958247259998
836.005,242.28915368371742
836.124,272.6834435095534
836.242,291.6205904782465
836.36,304.47894956815185
836.478,321.8386073593559
836.596,332.79480194709697
836.715,343.5657151495568
836.833,353.95221276760117
836.951,371.22009566703093
837.069,384.86460194308404
837.188,399.3558614658905
837.306,414.13543267700834
837.424,424.6379476110701
837.542,426.1733629780322
837.66,436.42825886447486
837.779,438.4952759630387
837.897,437.73025842956787
838.015,434.56437509523107
838.133,432.1881021505046
838.251,433.6196214135705
838.369,437.59399781949355
838.487,438.96058201762463
838.606,450.53495842354806
838.724,457.12751664765347
838.842,465.17894933063315
838.96,463.82085820408906
839.078,452.14328655806446
839.196,444.6908231371482
839.315,453.04615192402423
839.433,449.44563655505596
839.551,451.65118179214824
839.669,454.5727443452578
839.787,460.0449562490166
839.905,454.90071793632535
840.023,450.67769174484636
840.142,445.7343192330212
840.26,440.4247129549624
840.378,432.8086131704101
840.496,421.1552839486284
840.614,418.517539142431
840.732,424.63910169554106
840.85,423.58577247375933
840.968,424.88136100089537
841.087,427.0037893548713
841.205,423.3063042889339
841.323,431.6157456299228
841.441,431.79531684104177
841.559,445.338524415797
841.677,461.6600869689072
841.795,478.24658458695245
841.913,490.4287532006688
842.031,512.2490170524802
842.149,530.8502332852443
842.267,559.9570772236358
842.385,577.5357826338889
842.504,589.0305053601595
842.622,599.9841025453046
842.74,601.4805568733068
842.858,594.9345869588849
842.976,590.8457599016058
843.094,587.8010886884823
843.212,593.5936469125882
843.33,589.9204042708934
843.448,590.4246508066879
843.566,592.0700228836079
843.684,601.3162607613938
843.802,613.7252692019503
843.92,623.3862256944549
844.038,638.0722904120676
844.156,647.9696105409357
844.274,655.6790518819253
844.392,649.2369780713991
844.51,634.7187137846827
844.628,634.5199300174465
844.746,625.1878129168772
844.864,599.7708473314597
844.982,567.7495527417133
845.1,531.2356174593265
845.218,500.621249276507
845.336,452.0891321759385
845.454,412.6635085818635
845.572,385.66126161116506
845.69,365.32654710799886
845.808,334.79962481262476
845.926,314.8294124739607
846.044,290.7024901785868
846.162,285.90024320788825
846.28,263.00275814195186
846.398,249.44899601973847
846.516,227.6380910403825
846.634,209.0479652818056
846.752,191.43013389552308
846.87,185.76728086421872
846.988,162.68089226873659
847.106,157.63876547794416
847.224,132.261134411415
847.342,119.64770826216798
847.46,102.80557769968725
847.578,92.64055686126409
847.696,93.1164907113045
847.814,102.68902127509502
847.932,102.5445486777643
848.05,110.27630271951494
848.168,114.28895489788172
848.285,130.72325209789346
848.403,142.00170514206093
848.521,156.25591576198588
848.639,171.53436880615322
848.757,196.7141205516191
848.875,209.30859091180352
848.993,227.9411565100831
849.111,243.51138444602503
849.229,257.6080193083738
849.347,266.1817104477789
849.465,273.8584318902143
849.582,270.78363818113485
849.7,272.4577622209729
849.818,275.6020161309409
849.936,287.2034128980516
850.054,289.13900879936136
850.172,305.52222374829006
850.29,320.5374733292533
850.408,329.7449307024242
850.525,320.5385352617424
850.643,321.78062466954566
850.761,326.1984716531065
850.879,329.20160002194893
850.997,329.50256388862675
851.115,339.71002126179815
851.233,342.83263015012096
851.35,352.341386224591
851.468,356.5081509570697
851.586,378.88703690166983
851.704,403.7862691666163
851.822,442.35389969996106
851.94,494.37174668352213
852.057,552.7177321952217
852.175,612.6109038541074
852.293,676.097149106067
852.411,737.8976800723124
852.529,793.7440984844452
852.647,836.152421658483
852.764,862.3209179926941
852.882,897.8565138940048
853.0,917.1020665052722
853.118,929.3337663026869
853.236,926.7723925070284
853.353,917.652577152928
853.471,895.8842769503426
853.589,858.2016910334713
853.707,810.1623951598899
853.824,779.3516707148799
853.942,739.6621583910819
854.06,711.7051135997516
854.178,675.5852982456508
854.296,637.8568248828922
854.413,604.0028103945924
854.531,557.8388391963358
854.649,498.88698921020057
854.767,445.4035374924633
854.884,392.4213844760245
855.002,338.260010680365
855.12,287.20686199293044
855.238,236.19786914965175
855.355,203.08411440161115
855.473,163.72966701287794
855.591,129.2410204899457
855.708,98.81433147512752
855.826,72.53513385819961
855.944,45.275254535794
856.062,32.05859672635019
856.179,12.605481655485738
856.297,5.629230693749022
856.415,-7.4168873109643325
856.532,-13.962214337079686
856.65,-28.574345602972578
856.768,-32.2959103865634
856.886,-30.671588172708923
857.003,-25.342332025634477
857.121,-22.47015597259535
857.239,-15.569240418443588
857.356,-16.07295296522745
857.474,-22.954071987821365
857.592,-25.72478535879137
857.709,-23.324484972903385
857.827,-21.471192803956527
857.945,-25.33025202692948
858.062,-17.966904451804425
858.18,-11.798283899944039
858.298,-5.392522880810306
858.415,-7.927001359020309
858.533,-7.985914630828111
858.651,-3.6126462150597263
858.768,-10.082629039797219
858.886,-12.06008066825944
859.003,-10.461197003578263
859.121,-15.647100871766334
859.239,-12.941369763964987
859.356,-20.70938929704929
859.474,-22.152597439319557
859.592,-15.39975562258255
859.709,-21.727555980696298
859.827,-19.32993241460364
859.944,-22.465166735872057
860.062,-21.79607019879664
860.18,-14.092501466029024
860.297,-11.139221554974702
860.415,-1.1429149418080335
860.532,8.583561359759374
860.65,13.120482526617721
860.768,24.727032843028077
860.885,30.125211632126806
861.003,45.53571997158748
861.12,56.887090572310214
861.238,56.468677773176246
861.356,55.91076525066195
861.473,59.12254969784465
861.591,65.45468046537366
861.708,67.84308828917986
861.826,64.25227533376528
861.943,61.77055328744163
862.061,54.51653686882349
862.178,37.85386244154733
862.296,34.44746507054802
862.414,43.39950925799022
862.531,53.81302530690418
862.649,52.754998809599115
862.766,51.68723588567519
862.884,50.83322822847743
863.001,44.76222277926803
863.119,33.19251026680201
863.236,34.39161118965666
863.354,42.28910759302735
863.471,51.72547805591512
863.589,67.17567091372982
863.706,92.00758027340189
863.824,116.22652511418347
863.941,127.71822040529582
864.059,126.05617223014127
864.176,122.64990439824363
864.294,117.92790968421977
864.411,112.56342036068818
864.529,106.30710337006914
864.646,100.06031018897377
864.764,100.70442609878741
864.881,107.38663724669608
864.999,111.02728995304616
865.116,123.9545227459763
865.233,146.42894168609251
865.351,166.25920478205302
865.468,179.1258315143773
865.586,184.6807699350133
865.703,200.07034039028133
865.821,201.8789584645968
865.938,201.262468313804
866.056,197.57065348768634
866.173,202.31693389966372
866.29,205.1238203722472
866.408,213.98611810024204
866.525,219.84495262477378
866.643,220.39989104540945
866.76,214.9271238383396
866.878,211.96864234555562
866.995,204.2699011125119
867.112,200.7036274119356
867.23,197.93821951222503
867.347,208.55549559519852
867.465,214.8411699465703
867.582,219.50779667889452
867.699,229.53199916879453
867.817,233.45836616085904
867.934,240.5345167027071
868.051,254.2054724393604
868.169,268.10326800285344
868.286,286.116215081498
868.404,299.37158640256683
868.521,321.64254213922
868.638,342.4762684386436
868.756,358.74722417529665
868.873,385.8935045872743
868.99,423.38610534557245
869.108,459.8354160605804
869.225,500.8847267755885
869.342,532.2742972308565
869.46,570.239625261882
869.577,597.9737844617389
869.694,627.8066449602973
869.812,643.2923193116698
869.929,656.6238811089297
870.046,669.0913736421205
870.164,677.421203837649
870.281,663.5267916089351
870.398,648.8531586010008
870.516,634.2141576276985
870.633,627.1162821955218
870.75,600.2738180187564
870.867,580.0339512445885
870.985,564.7940844704204
871.102,540.8736982157332
871.219,506.82517343290743
871.337,479.666691940125
871.454,461.1246606637927
871.571,443.892586097417
871.688,416.7756630461927
871.806,393.30809064431895
871.923,372.8612974632242
872.04,341.34091120853634
872.157,309.6049405382639
872.275,287.61788761690946
872.392,267.0975013622217
872.509,246.5996259300449
872.626,220.84807084418856
872.744,198.32768458950096
872.861,179.45058837810336
872.978,155.9830159762293
873.095,141.8790799379915
873.213,125.2928928175026
873.33,107.0383074286154
873.447,94.33956619557227
873.564,75.96896349066768
873.681,59.86762485502716
873.799,43.00120084707673
873.916,29.664169973335788
874.033,26.69359016517739
874.15,16.815257282264817
874.267,8.852771059209035
874.385,4.405521395904388
874.502,-4.8328497010283895
874.619,-6.247852555965621
874.736,-8.98230823049381
874.853,-3.2399283054238834
874.97,0.6073147912385053
875.088,8.733249065795686
875.205,9.652906294765025
875.322,5.859818018883245
875.439,0.6691593684471906
875.556,-3.479447274398235
875.673,-2.873018680299812
875.791,-5.907030544366725
875.908,0.5795773319859221
876.025,7.3672184216013585
876.142,4.439691387722959
876.259,1.0829929657119042
876.376,1.9092341772787202
876.493,-5.569363873810959
876.61,-4.900287420671402
876.728,-10.732294886968287
876.845,-1.2475561131653912
876.962,-3.073640517907691
877.079,-7.558623557328269
877.196,-5.168537690951027
877.313,-0.4158264368449398
877.43,-2.984018551254443
877.547,-3.5646716854701297
877.664,-7.239971021933797
877.781,-7.203783983488788
877.898,-9.134139922835406
878.016,-17.43438893320434
878.133,-15.726543256161174
878.25,-17.434098293751457
878.367,-13.030556873635899
878.484,-12.902937436752657
878.601,-16.16711523207526
878.718,-10.505932328789818
878.835,-11.591547070827925
878.952,-16.20269422603547
879.069,-12.844886945107936
879.186,-15.214626715208286
879.303,-17.333923602654686
879.42,-19.82067550174051
879.537,-20.24769835662989
879.654,-8.127360965093102
879.771,-11.929323127600203
879.888,-10.83028299165105
880.005,-15.836900924716053
880.122,-24.335506804321014
880.239,-36.32610063046593
880.356,-51.80868240315081
