wavelength_nm,intensity
792.446,265.645869919617
792.565,215.79193052567766
792.684,174.2029261966734
792.803,140.87885693260418
792.922,115.81972273346987
793.041,89.18682230056949
793.16,85.0785971923444
793.279,94.4482941620413
793.398,115.00846732221444
793.518,131.7521902659374
793.637,155.74959286333996
793.756,182.27080498455206
793.875,199.43444134818836
793.994,201.06561017935715
794.113,195.4725365862835
794.232,180.76257987632678
794.351,168.09764481139172
794.47,149.35738507113206
794.589,134.45175736550442
794.708,127.96690888065595
794.827,126.41279632654343
794.946,122.63790455165162
795.066,122.18422489797189
795.185,122.92708204082902
795.304,133.35651927026623
795.423,130.22924654299354
795.542,125.57383528758241
795.661,121.74006905381624
795.78,120.0569521706994
795.899,117.0803287940761
796.018,109.80586991961718
796.137,95.3637598236052
796.256,85.19099296620439
796.375,71.05858270640637
796.494,63.88801151848068
796.613,60.86378510452876
796.732,64.92520728625882
796.851,72.8139990526048
796.97,72.74009942552722
797.089,69.63967411802219
797.208,83.62756049882881
797.327,99.50375856794707
797.446,118.68471854182718
797.565,132.05355730358616
797.684,136.5427423856916
797.803,136.28041231628194
797.922,118.05790908669903
798.041,101.59471321642337
798.16,96.94623596086616
798.279,93.82676303431325
798.398,96.19473599520623
798.517,103.11335830674864
798.636,104.84237022868065
798.755,108.72116570039614
798.874,107.30732047947085
798.993,108.5038648689351
799.112,105.38266034065049
799.231,113.26924802015802
799.35,111.74198288581286
799.469,111.2822502190001
799.588,102.66407599374574
799.707,94.1099710325605
799.826,88.20608252159153
799.945,79.57059227902062
800.064,77.19224489359242
800.183,95.5264516207182
800.302,107.99918648637208
800.421,120.87711615722067
800.54,134.65288132590487
800.659,140.61219627813898
800.778,140.37410863297055
800.897,140.61913787091876
801.016,142.3923056370056
801.135,138.6624431000621
801.254,138.54989658043462
801.373,132.32825915171622
801.492,137.01744423382044
801.611,144.52394533324093
801.729,157.13953734175243
801.848,173.47028086541553
801.967,167.81141399946847
802.086,148.95860773958196
802.205,132.6096975835917
802.324,101.90675400316543
802.443,82.13186454325901
802.562,58.02087579449251
802.681,47.135169445398816
802.8,36.68919119003517
802.919,17.00943314030845
803.038,1.3494497951345457
803.157,-7.338615991875413
803.276,-9.618675009088559
803.394,-8.267050212131965
803.513,-13.345658824461319
803.632,-13.225858279993687
803.751,-10.87355913959493
803.87,-12.577404129812917
803.989,-16.436854948734528
804.108,-25.5993638011935
804.227,-17.813144058822715
804.346,-17.254141248800742
804.465,-6.328795478356468
804.583,-7.045578289266782
804.702,-3.574703731481881
804.821,4.7000869416099675
804.94,4.4058546942089905
805.059,-0.6535258613549388
805.178,15.393789527124605
805.297,11.988330178481215
805.416,22.34713374788161
805.535,27.253186482865193
805.653,34.23304785586874
805.772,45.89021356929209
805.891,48.63374869036631
806.01,65.29134787705547
806.129,97.51524897801605
806.248,129.71956733743957
806.367,162.41566058863793
806.485,201.574091502174
806.604,236.9818730650607
806.723,256.6407368790297
806.842,264.74289073628864
806.961,266.3792437277467
807.08,263.6233889269968
807.198,259.04502330373606
807.317,232.66752348134108
807.436,222.38699335591593
807.555,215.84499136901877
807.674,207.57052184965409
807.793,212.91509994933708
807.912,230.99387718321915
808.03,260.42676697121374
808.149,291.41550091505263
808.268,316.7782608329174
808.387,347.06483027459177
808.506,361.4700144348807
808.624,353.7730340930053
808.743,340.20332647840246
808.862,322.91586994605063
808.981,291.2708376561231
809.1,267.26909540948543
809.219,256.6465739420683
809.337,246.506303556902
809.456,242.84049204619433
809.575,241.094161054967
809.694,245.64047075638
809.812,246.12357699458977
809.931,245.1711853973016
810.05,260.1486639298836
810.169,283.34519008151335
810.288,284.20318809461503
810.406,292.70707355360423
810.525,299.37113217276647
810.644,296.1564029131407
810.763,293.0585567703981
810.882,303.9537842207289
811.0,316.9710895931377
811.119,328.20484518199686
811.238,336.23773496999036
811.357,352.41261609997525
811.475,368.8680167104794
811.594,371.9156251131913
811.713,382.8567400094096
811.832,393.52166442943724
811.95,399.0186234814995
812.069,400.875755693735
812.188,418.6263943994769
812.307,428.9051716333571
812.425,430.2722605555489
812.544,426.12679536518647
812.663,427.5943171878109
812.782,426.31638446498073
812.9,425.180443084142
813.019,433.228917287719
813.138,453.2470884609928
813.257,473.08863625764326
813.375,492.0886256127353
813.494,498.5821214613338
813.613,500.3976952320102
813.731,494.0184638078815
813.85,486.1595787040993
813.969,487.40805290767645
814.088,493.0695141242405
814.206,508.1327069425362
814.325,521.8530426179747
814.444,518.6296553496902
814.562,517.2045364796742
814.681,509.13006696030743
814.8,500.3837359690794
814.918,490.96987251031896
815.037,483.29193978748935
815.156,472.4269940776468
815.274,464.4624812682372
815.393,467.71701607787526
815.512,475.5481742641367
815.631,482.43820690927237
815.749,482.7923088184775
815.868,482.1948955761672
815.987,485.1836295200039
816.105,471.2424933339702
816.224,458.57495022152955
816.343,451.76801316969494
816.461,439.75847871526287
816.58,420.8156109274976
816.698,390.6216608886501
816.817,371.8666718887637
816.936,353.06146643866094
817.055,336.64154237383957
817.173,318.41469190209204
817.292,310.00342584592886
817.41,306.786964984571
817.529,292.20080715351617
817.648,281.8155151233271
817.766,285.74970361261853
817.885,288.96354578156354
818.004,300.7479507210714
818.122,308.81200934023303
818.241,322.5689966071781
818.359,334.2106416791685
818.478,347.0762110080075
818.597,345.5655177847671
818.715,373.7832285291588
818.834,398.0292963927135
818.953,514.5134717478767
819.071,641.6714931712277
819.19,795.5491966860948
819.308,914.4026733226203
819.427,983.0206431518042
819.546,930.6415179082016
819.664,825.28535855052
819.783,658.5831676812118
819.901,554.3345985184467
820.02,430.37288984916876
820.138,367.44873063178363
820.257,321.45453747124725
820.376,295.53734821253886
820.494,264.58582241611686
820.613,247.05680744220558
820.731,244.50181844232037
820.85,260.4628467584523
820.969,274.5753902260994
821.087,310.2013536071661
821.206,347.77796633888227
821.324,366.59527171129105
821.443,372.6697199408429
821.561,361.7649473911739
821.68,340.2038977852279
821.798,308.8541035905373
821.917,272.01080290234006
822.035,247.90949355613407
822.154,230.7666257683697
822.273,221.11380127064876
822.391,221.2947430066942
822.51,227.78650725356226
822.628,228.93541435757322
822.747,240.14839072565343
822.865,252.69037142273788
822.984,256.4730447605149
823.102,248.00203844461225
823.221,249.51977671745436
823.339,251.7976881504698
823.458,253.82105412894003
823.576,249.7708270338174
823.695,263.4210328391279
823.813,270.9803295535296
823.932,267.97772150602657
824.05,256.11450739791775
824.169,254.84696428547983
824.287,253.9040964977173
824.406,252.57854472727078
824.524,256.26165096548226
824.643,262.05557971451617
824.761,264.3863050003467
824.88,265.761186130333
824.998,259.55338327763536
825.117,260.36376224311937
825.235,253.7853966198586
825.354,254.62261541218209
825.472,253.67108961576088
825.591,245.95592745570326
825.709,250.74899040387078
825.828,248.26239967238465
825.946,231.42862279371244
826.064,222.95501907521333
826.183,210.76886124415998
826.301,218.7809718113749
826.42,216.97663216213957
826.538,220.48744402805562
826.657,222.12726022297593
826.775,222.5133967642165
826.894,217.55234715827086
827.012,206.76445772548536
827.13,198.7774340935656
827.249,200.12634119757655
827.367,199.74191496825412
827.486,200.91766189910484
827.604,192.28042181696864
827.723,199.70119039284117
827.841,205.66135290810763
827.959,216.1132903151489
828.078,232.80418876115124
828.196,257.7201954322615
828.315,282.7955094626791
828.433,290.32277154504465
828.552,289.47341025078697
828.67,272.01452514700543
828.788,233.74957943716316
828.907,196.09478658336036
829.025,143.9326783919367
829.143,110.60104021864771
829.262,86.11025499785484
829.38,70.3938551681848
829.499,57.77426784348687
829.617,47.80548512850606
829.735,44.792112886727125
829.854,46.15200915564392
829.972,48.55092135584932
830.091,67.41737494470536
830.209,91.44453949405141
830.327,117.63809596551258
830.446,140.8191894858939
830.564,166.0881104183642
830.682,189.07696546761727
830.801,202.1982880493375
830.919,195.709221020668
831.037,184.64872542056975
831.156,165.09558912783064
831.274,146.7216736143123
831.392,127.49667584971158
831.511,126.61193782537053
831.629,135.08131235514196
831.747,135.8909466251729
831.866,133.7490657436887
831.984,141.92406797908774
832.102,145.8289403443569
832.221,145.72515470096826
832.339,134.80751624372692
832.457,136.16606826267605
832.576,127.50210945911415
832.694,117.7143411317427
832.812,111.45577132661961
832.93,107.42378013714452
833.049,99.74037845747901
833.167,87.37041612518891
833.285,76.40026184895548
833.404,65.2720732869216
833.522,62.988030164681945
833.64,75.21030532679741
833.759,87.6870387627688
833.877,117.52383612895034
833.995,143.72354668318766
834.113,171.27378918938984
834.232,202.6801457347379
834.35,222.9074887402
834.468,239.29154170237211
834.586,242.22364661259624
834.705,231.97047013753894
834.823,221.19434993953786
834.941,199.451995975303
835.059,179.57544287686903
835.178,166.48157376111905
835.296,163.7729860306506
835.414,173.84708228286618
835.532,181.92117853508182
835.651,193.90263409465678
835.769,202.13170870185076
835.887,216.08286123112242
836.005,228.2747064010868
836.124,251.55919226369156
836.242,280.8003880830063
836.36,302.6268652876023
836.478,315.21524725410325
836.596,329.3663997833748
836.715,337.52534452043875
836.833,354.55355332676675
836.951,370.3479958993285
837.069,390.8125683420203
837.188,406.11783342540457
837.306,404.1650898507802
837.424,415.9318267956364
837.542,417.72020876213776
837.66,425.6575084775569
837.779,436.6095268076946
837.897,441.25418583047303
838.015,447.035641390048
838.133,443.26904500157104
838.251,442.10937502002065
838.369,447.8146401034056
838.487,439.32250258938814
838.606,447.45807070307626
838.724,446.7849808081064
838.842,455.09284329408894
838.96,455.2431300224956
839.078,456.99687995436534
839.196,468.5359112715166
839.315,465.93641445013975
839.433,463.52825962010485
839.551,464.5616632316283
839.669,457.60891965700466
839.787,453.62154404774884
839.905,439.1744281787528
840.023,434.3290439114885
840.142,437.3711055316702
840.26,433.43308057176534
840.378,434.9721118889165
840.496,436.21590511082957
840.614,434.0571009301451
840.732,425.4627989139625
840.85,414.29966572894875
840.968,414.81272302012553
841.087,421.87383225935434
841.205,422.92628348992525
841.323,440.17960052136203
841.441,454.22166214154345
841.559,465.845541943543
841.677,479.5179065940275
841.795,487.0837777380184
841.913,505.7717268040873
842.031,517.2319702424504
842.149,531.5251141137138
842.267,553.614794781514
842.385,572.7036096484485
842.504,584.6859310088896
842.622,593.9920618931405
842.74,594.1207035999022
842.858,593.5852760425946
842.976,594.9572077926462
843.094,592.3464555600137
843.212,589.7547509464287
843.33,591.4115311813287
843.448,585.2388741867911
843.566,583.2757410017774
843.684,580.2996208037766
843.802,591.1018555841307
843.92,608.7534410138355
844.038,621.0613034998173
844.156,643.7561789728122
844.274,650.0666388613915
844.392,654.3519905248628
844.51,650.3793335303253
844.628,635.3231267522378
844.746,620.4158377230681
844.864,590.8496742350239
844.982,555.7276665911355
845.1,522.4065247481128
845.218,486.7407941605014
845.336,445.6724661702927
845.454,408.9790299549758
845.572,385.9687106227758
845.69,362.3731099052944
845.808,344.4688511791553
845.926,332.0728175612412
846.044,323.1261345926778
846.162,320.9370273816901
846.28,290.32454354732573
846.398,262.25491685581846
846.516,233.65542003444116
846.634,195.06891022605083
846.752,171.09019262545263
846.87,145.39978671316624
846.988,134.64357993507906
847.106,129.8233038929227
847.224,117.01774646548498
847.342,114.89530592116407
847.46,111.7971078010856
847.578,102.26936508869379
847.696,98.1685337783924
847.814,102.69449431145317
847.932,113.35245633792059
848.05,123.88975525340848
848.168,137.83091713416468
848.285,161.20926046867288
848.403,173.8318312225878
848.521,179.7296192889514
848.639,183.267234195142
848.757,205.19445949094296
848.875,216.97796184302098
848.993,228.30172393535884
849.111,233.74842975064047
849.229,246.65747322825976
849.347,263.55352969289197
849.465,269.03659914453715
849.582,270.08070755722144
849.7,278.1975432426329
849.818,282.28321009687556
849.936,291.31606309830426
850.054,291.0683966192133
850.172,309.29605481544695
850.29,329.33583422380167
850.408,330.8414144979572
850.525,325.1565185816367
850.643,325.6820122757058
850.761,331.00664016890914
850.879,335.8420905729349
850.997,338.4394457388655
851.115,346.66796973596496
851.233,356.3865370231075
851.35,364.52848093362667
851.468,369.3855763592972
851.586,387.3024120447079
851.704,419.4599403708112
851.822,456.43045570990137
851.94,503.01395806197866
852.057,559.049408466004
852.175,619.54459912977
852.293,679.5107854645316
852.411,730.0033787257004
852.529,780.882984973882
852.647,833.521898581371
852.764,865.3400329680805
852.882,895.3477777444006
853.0,920.7832281484264
853.118,924.2836136173871
853.236,918.5554276577767
853.353,909.4662027371273
853.471,888.5475405870407
853.589,860.1483589564345
853.707,818.098960875612
853.824,790.0634156086421
853.942,756.7811170949192
854.06,713.7698142521921
854.178,671.9810222319758
854.296,634.3524033719326
854.413,591.1722693603742
854.531,546.3713561280364
854.649,493.36265068790624
854.767,441.73662923046
854.884,392.9365817989877
855.002,337.07073350171447
855.12,287.6170064165624
855.238,244.5797295478605
855.355,204.78574272244876
855.473,169.43071693599785
855.591,135.86270413655993
855.708,106.07582369459166
855.826,82.01164886801914
855.944,55.079370681510675
856.062,36.30760557913362
856.179,19.550247953071242
856.297,0.5852553577886845
856.415,-8.94472183340488
856.532,-12.67753334684408
856.65,-20.94468919168547
856.768,-23.795560127403824
856.886,-26.371384114252443
857.003,-26.832124056041323
857.121,-27.91500579865673
857.239,-26.21324578665585
857.356,-29.487214621312454
857.474,-34.03431110465657
857.592,-37.95750467315374
857.709,-33.085559099676104
857.827,-30.824237811620975
857.945,-22.12990203696763
858.062,-12.22722617681956
858.18,3.946902864488741
858.298,6.952517246986074
858.415,1.0402685858970608
858.533,0.7491104678066218
858.651,-4.44328824402395
858.768,-12.60431047042952
858.886,-6.289179375225471
859.003,-4.668373597343981
859.121,-2.2034000953157866
859.239,-2.6597314690852896
859.356,-13.818795245196753
859.474,-16.3441293747682
859.592,-19.665864789630536
859.709,-22.298149068242637
859.827,-18.574401838098503
859.944,-16.210540396408604
860.062,-13.085572989510226
860.18,-6.644136772710656
860.297,0.8634074404600138
860.415,6.098057967541411
860.532,15.53356640583721
860.65,22.96191041790579
860.768,25.391089652915227
860.885,28.826010431643738
861.003,38.51063795358968
861.12,44.09189545134642
861.238,50.91280238146835
861.356,54.93830442711211
861.473,64.72744283639233
861.591,77.21701414610556
861.708,74.60788415711744
861.826,76.61953338890868
861.943,80.99828218779952
862.061,69.81772362738302
862.178,57.20772783752923
862.296,52.21677966672308
862.414,51.780809850895345
862.531,52.255662545890075
862.649,44.1071386175084
862.766,51.312727243239394
862.884,51.40056695122148
863.001,49.27801704881384
863.119,46.060229051167966
863.236,50.10737611845705
863.354,53.428982060205065
863.471,56.22071787208306
863.589,57.2462199177275
863.706,70.27518516683533
863.824,88.30934522113816
863.941,105.14870008063592
864.059,104.69454844662735
864.176,107.62221499443697
864.294,104.74295513532026
864.411,95.19702860953684
864.529,82.7532665859178
864.646,79.83071668351077
864.764,90.10470357764038
864.881,105.29903679211627
864.999,102.83882455204679
865.116,118.83056036392534
865.233,146.23355158705934
865.351,164.85385882750933
865.468,178.46204485583806
865.586,196.590577204513
865.703,209.89140392548217
865.821,213.92210077632154
865.938,206.0030140773773
866.056,204.92115681566253
866.173,206.264407779056
866.29,207.3522474870383
866.408,207.0963642512978
866.525,221.10195287702922
866.643,222.93611293133216
866.76,227.77633359169587
866.878,233.31179234729774
866.995,224.21261906826768
867.112,218.22599990179174
867.23,212.02033311626815
867.347,204.96877888485722
867.465,207.37523331145485
867.582,209.51415527051998
867.699,222.05740623391426
867.817,231.35044074709225
867.934,242.23481725161224
868.051,269.7720076089462
868.169,290.16720662428884
868.286,312.45331473054074
868.404,322.4537085510782
868.521,334.22293354044666
868.638,343.4995178371745
868.756,357.03151338931343
868.873,378.3877513656947
868.99,405.4807858788728
869.108,448.7244697427002
869.225,493.25300209137606
869.342,525.9841318426493
869.46,566.9143957930567
869.577,607.7866510854553
869.694,634.0805513994987
869.812,644.3112482503391
869.929,653.016403975638
870.046,669.3544601338374
870.164,669.2769318764522
870.281,658.6227802424434
870.398,651.9911394309454
870.516,645.1551696151187
870.633,626.5945244746164
870.75,606.2615849618201
870.867,591.5000740204523
870.985,569.796571737093
871.102,546.3225066831708
871.219,515.3912987721058
871.337,484.8479696489195
871.454,462.63624225733486
871.571,439.63663607787123
871.688,409.469930331308
871.806,384.1127483942686
871.923,350.9122764139392
872.04,329.20444512625056
872.157,307.5459644879125
872.275,281.36107692316756
872.392,265.78311576534884
872.509,250.40775201012755
872.626,234.07048349300157
872.744,218.42239246505332
872.861,196.3682408310446
872.978,171.62318010612694
873.095,151.5343964374864
873.213,124.98500670824001
873.33,104.08410182747848
873.447,90.25419261771283
873.564,75.89441327807707
873.681,63.14762095142827
873.799,52.186975810926604
873.916,39.21161205570627
874.033,27.519186122732805
874.15,21.323560660353902
874.267,16.166824033943595
874.385,11.537683362351569
874.502,3.5598749222058963
874.619,1.6440187425326256
874.736,3.999858023552233
874.853,7.947717934516852
874.97,5.116398225659065
875.088,5.641502874897517
875.205,8.49136721963944
875.322,4.282535216593818
875.439,0.5036362204311349
875.556,-3.1197065239883104
875.673,-1.7582982765654123
875.791,-7.399615534235739
875.908,-6.467837132447568
876.025,-16.79637180792671
876.142,-12.18756385029322
876.259,-14.118735387087693
876.376,-14.634038901838954
876.493,-10.808722212578983
876.61,-3.939061848883239
876.728,2.23835912530499
876.845,11.099034174243595
876.962,2.735201668669612
877.079,1.7045599819280013
877.196,-1.469589896130945
877.313,-5.443602123321461
877.43,-3.015196127227404
877.547,-7.978473961514507
877.664,-4.321030344331146
877.781,-6.171345882781804
877.898,-12.31502229316835
878.016,-14.531880574206532
878.133,-12.360275006211117
878.25,-6.649227902768038
878.367,-7.2910507839296645
878.484,-7.454677961177474
878.601,-7.62695582543261
878.718,-15.37057348211566
878.835,-23.163498745327082
878.952,-27.854916938210675
879.069,-26.386022801065444
879.186,-26.041568828910457
879.303,-23.61173808079296
879.42,-7.945593089981649
879.537,-2.8957292415463476
879.654,0.9135893041879548
879.771,-4.15098596309721
879.888,-10.811938127472985
880.005,-15.770790555998309
880.122,-22.21829927020667
880.239,-30.154464270098075
880.356,-39.57928555567253
