wavelength_nm,intensity
792.446,250.28747328287355
792.565,193.73863915582726
792.684,147.8535311859627
792.803,112.63214937327993
792.922,88.07449371777892
793.041,67.95423463854108
793.16,64.96131063157044
793.279,80.8051319882405
793.398,96.71076203688685
793.518,123.57909030298003
793.637,157.135730257385
793.756,189.80146112088102
793.875,206.98320930039444
793.994,210.07145098640137
794.113,195.9068788195946
794.232,173.2834321939133
794.351,157.30587301411924
794.47,139.09801080402198
794.589,132.96893647271244
794.708,129.22427772581844
794.827,123.51338521269064
794.946,117.66396456103465
795.066,109.57211966695449
795.185,116.4932617858613
795.304,129.65942554978966
795.423,123.3719096600384
795.542,121.78569247158578
795.661,107.53107701473493
795.78,98.93533601675861
795.899,82.76383744302473
796.018,70.25987133682332
796.137,65.73426020897693
796.256,70.53851921100073
796.375,71.90166011760138
796.494,67.45758105318549
796.613,61.89938797550826
796.732,63.269437965716335
796.851,58.3375496634161
796.97,57.745544802736006
797.089,59.14124043930113
797.208,63.7715225433068
797.327,76.57758409475672
797.446,87.52848238769383
797.565,110.88162809157035
797.684,121.22217174493932
797.803,126.53053622298707
797.922,127.78175784389197
798.041,116.24683227864963
798.16,99.70065130215183
798.279,88.83845300963665
798.398,79.5295014703683
798.517,88.95648066703063
798.636,93.83281051304364
798.755,103.84766849758475
798.874,108.05300267260205
798.993,102.1475143367968
799.112,97.59787015683568
799.231,90.3391350677837
799.35,79.60761983253796
799.469,74.55175312188344
799.588,71.9906042708584
799.707,68.26756293243376
799.826,73.4269624541365
799.945,75.9508764148463
800.064,86.45781992349706
800.183,103.38067169699865
800.302,115.10347059703373
800.421,128.20895347975278
800.54,139.19322424125997
800.659,147.746936096377
800.778,157.11677254992927
800.897,157.47984031911682
801.016,161.84644710690463
801.135,156.26563082520337
801.254,158.4863092229308
801.373,164.62882862043293
801.492,178.78756131208232
801.611,197.9945419299135
801.729,212.76312876846924
801.848,216.0659905563611
801.967,208.02265519753033
802.086,175.48398223609445
802.205,145.38946511881443
802.324,106.65383444685787
802.443,72.62132622779704
802.562,49.49047468868676
802.681,35.40651550145043
802.8,18.968227008093887
802.919,7.800228827642209
803.038,-1.7659332019602836
803.157,-6.054566481722069
803.276,-14.261364441046492
803.394,-22.252370076296813
803.513,-25.993751081461184
803.632,-25.97730645429267
803.751,-27.677438625214243
803.87,-26.38926910245742
803.989,-29.52715926024195
804.108,-30.65940181995147
804.227,-22.44684386643845
804.346,-22.04957110749123
804.465,-20.386642813307635
804.583,-10.881589814341236
804.702,3.3405674235713487
804.821,6.701267538800266
804.94,5.844365574010636
805.059,5.709368832046685
805.178,16.846051242316705
805.297,21.075618949185806
805.416,31.228892080122375
805.535,40.35527693442951
805.653,46.12526725328722
805.772,55.539063406516476
805.891,71.59945410625107
806.01,92.0968673372989
806.129,130.48727597611338
806.248,178.06120198133564
806.367,223.06735078186955
806.485,253.7160744803449
806.604,281.54661636063844
806.723,311.30010196387565
806.842,315.7280464415718
806.961,313.10144546472264
807.08,302.1700825831117
807.198,287.690667753449
807.317,266.19913171166536
807.436,241.2305393928254
807.555,225.01086482290327
807.674,220.7989824607733
807.793,221.0139399254831
807.912,237.36309652439206
808.03,267.4680972791451
808.149,303.648422709223
808.268,345.04779575834857
808.387,379.4047445650499
808.506,388.4941609042187
808.624,388.7342265940365
808.743,382.040093149655
808.862,357.72691208622564
808.981,338.275202884268
809.1,320.94557160438853
809.219,307.7579316665004
809.337,292.10275926108
809.456,269.48221889029173
809.575,269.55258761041256
809.694,278.0948178023949
809.812,287.703714661044
809.931,306.68230848939004
810.05,332.7596036164374
810.169,353.73040523699115
810.288,373.94016789650595
810.406,384.17503878112893
810.525,391.4549313107734
810.644,395.0447805503748
810.763,401.8242401795867
810.882,402.26690327200225
811.0,408.9416009964526
811.119,416.8994156040203
811.238,436.2901306444885
811.357,438.2003262044374
811.475,441.7468854007498
811.594,447.6172541208716
811.713,448.5170600704307
811.832,444.64716905029263
811.95,437.75649880937533
812.069,427.6069541095835
812.188,428.8366301890128
812.307,417.81089501303086
812.425,414.59554944743877
812.544,401.68583158747435
812.663,382.3129102643067
812.782,366.8724564736065
812.9,354.99390744481104
813.019,356.7413324419895
813.138,380.35282670323716
813.257,396.76864996881375
813.375,430.0788455287626
813.494,452.21328351295386
813.613,470.4576782071018
813.731,483.6631118622886
813.85,497.3707100196398
813.969,511.70341640209904
814.088,534.606685555121
814.206,542.8545434527318
814.325,560.7024013503426
814.444,560.7632462609404
814.562,559.9998487472957
814.681,561.0200010172008
814.8,565.3596338065864
814.918,562.7624700591755
815.037,574.2717998182582
815.156,570.0815624777736
815.274,564.1389441849083
815.393,557.8032522989693
815.512,563.2337941792641
815.631,568.4167170119399
815.749,567.2368692818452
815.868,564.4293159240447
815.987,574.2442733887551
816.105,563.3942957885304
816.224,545.2992965432841
816.343,523.7765916703319
816.461,503.878995022488
816.58,463.7008788941247
816.698,424.959126402125
816.817,407.7939972867489
816.936,390.7344958770006
817.055,377.8507520430097
817.173,365.9791294211401
817.292,357.87893537069885
817.41,355.8393473808635
817.529,341.09499748626627
817.648,339.52034456136573
817.766,347.8573799481534
817.885,343.1061036466291
818.004,351.8526628429404
818.122,365.09705753708715
818.241,384.81504530482704
818.359,398.41539543444105
818.478,403.2392809614936
818.597,379.5464484771604
818.715,387.4790496091089
818.834,388.9940453172586
818.953,528.6916875679564
819.071,690.6126751540844
819.19,898.5968648710473
819.308,1062.6798141030824
819.427,1154.2861408121848
819.546,1098.2559911246613
819.664,972.429254758554
819.783,774.4430356969842
819.901,640.7347289923316
820.02,505.43727713879605
820.138,434.551936266724
820.257,382.72870265758434
820.376,352.526703912024
820.494,314.74079557586674
820.613,301.4890863739088
820.731,296.1481996827732
820.85,309.34670693103146
820.969,344.9097163437916
821.087,393.43722792105393
821.206,443.9811897147664
821.324,468.3926839760113
821.443,474.9245245576027
821.561,467.66502314785214
821.68,434.3111494437293
821.798,391.50532768765856
821.917,348.16184359392554
822.035,324.1819958638291
822.154,307.5450052765899
822.273,302.88550386683994
822.391,311.1913704224579
822.51,311.50156598240505
822.628,301.62648015707066
822.747,295.973905154247
822.865,299.5914600215533
822.984,301.2566339364787
823.102,301.1642320938283
823.221,315.0216138009612
823.339,324.06167949077815
823.458,319.40910448795444
823.576,311.1712480998492
823.695,318.6546038329562
823.813,329.7197777478815
823.932,331.17283045068564
824.05,328.0622467898535
824.169,327.9092388865969
824.287,326.42809245520175
824.406,319.1954308722916
824.524,323.1930723196844
824.643,324.42621160257494
824.761,325.9805630066776
824.88,321.2578581337241
824.998,324.2511705767878
825.117,325.60119297656126
825.235,325.7780552031744
825.354,316.6813243561944
825.472,324.48416060878145
825.591,317.3640531384244
825.709,314.7149413390631
825.828,309.04764772152
825.946,296.46000778363043
826.064,282.92691330028634
826.183,271.83970626282945
826.301,270.26332173619505
826.42,282.9250324476558
826.538,289.744318916692
826.657,300.00516382728665
826.775,302.12574899762166
826.894,287.49395321557586
827.012,267.08726565863844
827.13,243.40352182464468
827.249,236.46436673523985
827.367,231.9641726847961
827.486,229.90553707591064
827.604,233.51616553628924
827.723,241.73804940792323
827.841,245.43525795488182
827.959,260.41298598235977
828.078,271.85651487563854
828.196,297.2628143316879
828.315,313.9245250431486
828.433,328.14381151218504
828.552,319.2046564227801
828.67,294.23952730740115
828.788,251.38629309531848
828.907,209.10215394479968
829.025,158.47500819167897
829.143,117.92638440964402
829.262,84.77718033106734
829.38,71.5308734254197
829.499,60.911454007286494
829.617,56.455429916786684
829.735,58.282949311387604
829.854,60.98814905417222
829.972,74.73468828776421
830.091,92.18160288450349
830.209,116.33412355247543
830.327,149.7810843853818
830.446,186.14218307979897
830.564,213.20643189817798
830.682,242.5048347097209
830.801,246.34588870214958
830.919,235.89949680713224
831.037,213.08340794241767
831.156,182.8638558742398
831.274,164.66768042943863
831.392,152.67929719242966
831.511,159.45974512425187
831.629,169.6930069088881
831.747,178.96522973248523
831.866,189.06429238292222
831.984,205.16335503335904
832.102,208.966313787692
832.221,202.53983531258768
832.339,192.31682004094654
832.457,189.87908615458687
832.576,171.62836525524014
832.694,161.74734132559038
832.812,155.6593909890143
832.93,152.49186209481263
833.049,142.56151255648822
833.167,129.76979901602965
833.285,127.11023615127077
833.404,131.0657992732935
833.522,140.74139185889467
833.64,158.9166594034008
833.759,185.71179028646822
833.877,213.06543785000542
833.995,250.76886896332636
834.113,286.18139098573823
834.232,314.8978091120463
834.35,331.9614133855406
834.468,338.0700393040564
834.586,342.0765007204077
834.705,334.3686764224732
834.823,315.31539757908394
834.941,299.895884969461
835.059,279.56122084468666
835.178,269.90621039956596
835.296,260.74297484622014
835.414,263.4741115872465
835.532,280.6199669429916
835.651,297.96841970133414
835.769,318.2389503817547
835.887,338.84887500156935
836.005,365.16789053047506
836.124,396.6444818169565
836.242,416.24315102551583
836.36,438.150911143166
836.478,453.398931001076
836.596,469.4590720711072
836.715,477.4767888987141
836.833,483.0425576743729
836.951,493.5035645452697
837.069,505.0381644897593
837.188,511.93726659875074
837.306,513.1316068029801
837.424,519.1103625916248
837.542,524.5453954365468
837.66,528.3215538225941
837.779,537.6085347194639
837.897,549.2894550102732
838.015,555.9790333097404
838.133,556.9205596611557
838.251,551.5235578740426
838.369,553.8538288142023
838.487,542.2369136071761
838.606,539.2269248070763
838.724,538.9762433662836
838.842,540.7220987220278
838.96,535.2090796188975
839.078,538.6692206889275
839.196,545.2479764775719
839.315,551.0128794523637
839.433,546.0262672756405
839.551,543.6283996876617
839.669,541.2010948702457
839.787,534.6361277151672
839.905,527.7499484388765
840.023,526.2568427556591
840.142,525.5005336092385
840.26,518.7866487052423
840.378,517.7515516800339
840.496,512.7943767327481
840.614,516.2172883655487
840.732,512.1267800849294
840.85,507.26311163114985
840.968,500.5059366838635
841.087,511.8388050266205
841.205,514.8556560533602
841.323,538.9348447424376
841.441,561.0997477172294
841.559,587.6767719041425
841.677,609.1299865672459
841.795,619.5208635680117
841.913,629.243342300379
842.031,650.3467734136989
842.149,658.0805075573217
842.267,671.8306919173947
842.385,680.7912658878577
842.504,692.7882034946842
842.622,711.150509066879
842.74,714.8279661542254
842.858,715.5946007307496
842.976,709.6720578180962
843.094,690.1806837366117
843.212,680.9274048932225
843.33,672.1269399026473
843.448,680.0087259943232
843.566,683.3718973673842
843.684,694.6467570521336
843.802,709.733737949004
843.92,711.5254807506362
844.038,711.8999075349525
844.156,724.7280139729482
844.274,732.2054710602949
844.392,740.5824952472087
844.51,729.4357099103131
844.628,723.8794007638935
844.746,713.9585894529715
844.864,689.7936222978935
844.982,660.4572265713871
845.1,621.366718290768
845.218,577.8736126075514
845.336,535.7510696948978
845.454,489.85623240994977
845.572,447.6800098436165
845.69,414.86482623832205
845.808,391.2236686070537
845.926,372.9106495039239
846.044,363.15607195923565
846.162,349.8958667089197
846.28,331.4642328871752
846.398,308.8066250394568
846.516,280.65377909650033
846.634,251.28275133536198
846.752,224.47795734045752
846.87,202.63679970918957
846.988,189.8995381818178
847.106,165.6997339686017
847.224,144.94191347957062
847.342,137.35281017395982
847.46,132.35322603207243
847.578,128.31430861155647
847.696,132.29434758420106
847.814,141.98509508225726
847.932,157.39834578501757
848.05,161.83476808764772
848.168,175.0348267539142
848.285,189.9690845543798
848.403,197.85052850203158
848.521,200.368336086047
848.639,214.36666315058199
848.757,227.07754432767112
848.875,236.8689449852797
848.993,248.78588676842935
849.111,261.4231748719252
849.229,264.6518049667628
849.347,263.80164718281264
849.465,260.00430325167633
849.582,254.5558770694578
849.7,245.100524480313
849.818,240.72742297341927
849.936,248.58635609855997
850.054,253.33706411547536
850.172,257.2505426951611
850.29,264.5700818809074
850.408,269.4731708502035
850.525,271.7139221571619
850.643,285.2533747628216
850.761,293.0049485806027
850.879,304.04223668409793
850.997,316.1409966490652
851.115,323.70296007723573
851.233,337.1428455833286
851.35,350.0606531673436
851.468,364.37846075135855
851.586,391.5525453916505
851.704,418.9573659626786
851.822,466.7232254947454
851.94,536.1315092692366
852.057,617.1545116584465
852.175,705.9974274675699
852.293,782.0204298567796
852.411,849.8105318130888
852.529,902.3002008689655
852.647,942.4868396218117
852.764,971.911573612753
852.882,999.8891214565086
853.0,1027.0761931097882
853.118,1032.8675937673966
853.236,1027.2901632561736
853.353,1005.5690098012278
853.471,982.6920121904379
853.589,953.589040553674
853.707,922.1596619905031
853.824,885.1519284489774
853.942,859.1831559464126
854.06,814.0775869070518
854.178,768.0395503352233
854.296,717.9062756681569
854.413,676.8180226461125
854.531,624.7150510093495
854.649,565.8164083769157
854.767,497.68832851504465
854.884,438.8165257094505
855.002,373.67199563112894
855.12,309.64608027142174
855.238,259.0175675091171
855.355,217.7319118896694
855.473,184.88348570745117
855.591,146.74909179674336
855.708,111.70227752284657
855.826,86.723801528627
855.944,60.674081856442285
856.062,37.37069848429878
856.179,19.755463851306338
856.297,8.701205027124775
856.415,8.22763319490045
856.532,-0.10457664779697273
856.65,-18.109672592369275
856.768,-17.131172891751397
856.886,-28.05545022386825
857.003,-37.142056356124655
857.121,-42.22697671304531
857.239,-43.8560932168383
857.356,-38.02239138509211
857.474,-37.47725369659592
857.592,-43.21350511797202
857.709,-26.185761553578388
857.827,-25.948598300683415
857.945,-23.76238488066251
858.062,-15.763479619861219
858.18,-2.7685037399439762
858.298,3.0256670160883727
858.415,0.9727654555749687
858.533,0.8188546307074289
858.651,0.12660291770633014
858.768,-3.1255112613306446
858.886,-3.066166462619629
859.003,-2.092749010170441
859.121,4.187815109049451
859.239,-1.1906941506936572
859.356,-12.12873704825026
859.474,-17.815269537822026
859.592,-26.56830277770902
859.709,-24.951316284095256
859.827,-25.760972509063972
859.944,-17.413672438015528
860.062,-13.902248532277547
860.18,-17.121162419634057
860.297,-10.023419425969376
860.415,1.3293787761211187
860.532,10.903153355890343
860.65,20.358190119507817
860.768,30.784494989841875
860.885,46.019564470000006
861.003,53.5555945605081
861.12,62.71153372089613
861.238,71.77572191403046
861.356,82.83541209094776
861.473,80.16548565582666
861.591,82.03755056269671
861.708,72.39922960539234
861.826,70.43940542911055
861.943,63.87839249497993
862.061,62.03982343073742
862.178,49.681425479684556
862.296,48.74566985133651
862.414,45.306092067742696
862.531,52.806253002447775
862.649,45.36276918352221
862.766,51.45175742048516
862.884,47.43944017101792
863.001,47.77604067046836
863.119,47.308312165589854
863.236,51.65616807629563
863.354,57.59969498267229
863.471,67.58218292801
863.589,77.8728959815727
863.706,93.1584142299406
863.824,101.81016624454206
863.941,104.20044639767136
864.059,108.81929797937195
864.176,109.24507596799876
864.294,108.75829984407139
864.411,110.50788735650762
864.529,107.00033201180096
864.646,110.30143467575236
864.764,113.69431223147862
864.881,114.40320710322216
864.999,122.1354785983423
865.116,141.05909208480443
865.233,173.23984842840952
865.351,201.46043161184127
865.468,220.64724856150673
865.586,243.11112178822827
865.703,253.56720280715763
865.821,257.59038339318636
865.938,246.99105315670442
866.056,242.88263201113162
866.173,241.77507666642458
866.29,244.36102781522408
866.408,246.29589671294133
866.525,250.9268695067626
866.643,250.3760241187658
866.76,254.48145578704606
866.878,249.64922511766423
866.995,242.139938171226
867.112,238.88606248019903
867.23,249.2702820272674
867.347,248.00255352238784
867.465,248.18504146772483
867.582,259.658438503971
867.699,264.5396277480093
867.817,275.8675702388009
867.934,284.08036121444087
868.051,305.4498621467908
868.169,332.83841069818834
868.286,344.8027168253436
868.404,357.96182814730423
868.521,390.99453254285794
868.638,411.22896854014317
868.756,442.8398114638354
868.873,476.1813903182634
868.99,529.0281639778863
869.108,582.7775350401064
869.225,622.4087242841447
869.342,658.4602598485295
869.46,711.88279108391
869.577,751.3369240508919
869.694,780.299715026532
869.812,787.5923761320423
869.929,800.5402320427476
870.046,810.6162264815912
870.164,799.0965499247638
870.281,788.1708127618758
870.398,787.8234305773426
870.516,784.90894882571
870.633,769.087973567584
870.75,742.7431887856485
870.867,718.8113910167001
870.985,696.7332729014313
871.102,658.4854578164657
871.219,622.5562574501148
871.337,587.8071436638505
871.454,565.9160385355949
871.571,537.9366217190276
871.688,512.1078542531095
871.806,480.03060193870664
871.923,446.8260768970308
872.04,414.317655751459
872.157,373.48109607774865
872.275,348.8696446291466
872.392,326.3603576827091
872.509,305.82509671029754
872.626,274.407584655635
872.744,246.95544056634037
872.861,216.36390253765182
872.978,190.72820866480734
873.095,166.4284455278937
873.213,151.938206200504
873.33,126.90684133198886
873.447,102.64344183143905
873.564,79.16792111876796
873.681,61.20235711605344
873.799,44.64198791853366
873.916,39.805428244823155
874.033,38.236435657478395
874.15,38.14332186681333
874.267,25.061751895883276
874.385,16.74881262603288
874.502,17.166399045409268
874.619,3.3263836984836903
874.736,-4.140816854289671
874.853,-12.310033856161532
874.97,-16.333785233137966
875.088,-16.07023644070864
875.205,-16.685458482446336
875.322,-10.481467975895905
875.439,-4.474644383134918
875.556,-8.484289789069322
875.673,-6.485726646764507
875.791,-10.975716746842961
875.908,-4.098956600759678
876.025,-5.76559774049933
876.142,-5.459506132072514
876.259,-9.228818620432271
876.376,-11.976754800095677
876.493,-16.984806025618564
876.61,-15.554651375645925
876.728,-9.639381246246149
876.845,6.618324311120862
876.962,10.120113068655431
877.079,9.161861791488818
877.196,7.595841698985714
877.313,5.113296613492116
877.43,-4.3645131327745315
877.547,-9.783995876278029
877.664,-13.813434433278442
877.781,-14.938925598771158
877.898,-15.52749488257185
878.016,-23.53998429882361
878.133,-27.501852052988227
878.25,-23.139847764061507
878.367,-25.206393065151392
878.484,-22.052394705916377
878.601,-21.42632823882803
878.718,-16.409868733746904
878.835,-14.451916692731793
878.952,-16.007836399297005
879.069,-14.934450247630316
879.186,-18.627249689964636
879.303,-20.518348480532577
879.42,-21.790476887707293
879.537,-21.572113679906806
879.654,-16.97387969708678
879.771,-21.568057725791224
879.888,-27.611919694446783
880.005,-27.82798828921619
880.122,-27.78140573410066
880.239,-27.472172029100218
880.356,-26.900287174214867
