wavelength_nm,intensity
792.446,0.2676709965615532
792.565,0.22940610247852578
792.684,0.19779925062658138
792.803,0.17285044100571995
792.922,0.15455967361594145
793.041,0.1366623737926503
793.16,0.1369049127998192
793.279,0.14365858469658593
793.398,0.1562110177704658
793.518,0.17342089275058103
793.637,0.20082780056066993
793.756,0.22691113836020838
793.875,0.23789469054200124
793.994,0.2408987093879364
794.113,0.22764152725608272
794.232,0.20669308672260647
794.351,0.18711603103252253
794.47,0.17570214535515283
794.589,0.17185478373286167
794.708,0.170033662273319
794.827,0.17179033765381396
794.946,0.1726648640168059
795.066,0.16829292517043798
795.185,0.16686887471406042
795.304,0.16682729659854578
795.423,0.15987266381012477
795.542,0.15455066502424658
795.661,0.14616851693648847
795.78,0.14159145938691486
795.899,0.1319855287658415
796.018,0.12909446380038783
796.137,0.13495836402514055
796.256,0.1310271742879044
796.375,0.1272703675898483
796.494,0.12386737278365137
796.613,0.11518077383981584
796.732,0.11193540787544308
796.851,0.1072192471292932
796.97,0.10591793287180629
797.089,0.11030449353630828
797.208,0.11511718881066547
797.327,0.12805646436476223
797.446,0.13301357478933412
797.565,0.141919220250616
797.684,0.15050471422243472
797.803,0.1613887850136229
797.922,0.1646571309797068
798.041,0.15724890985021484
798.16,0.15607809901651587
798.279,0.14411915314394308
798.398,0.12876535413959736
798.517,0.1237056035680929
798.636,0.12183420148797211
798.755,0.13075093444672523
798.874,0.13831291380829203
798.993,0.14127011687660884
799.112,0.14256835313589006
799.231,0.13899502019403534
799.35,0.1345533976065159
799.469,0.13568462843514656
799.588,0.1370791873287036
799.707,0.1367600348944643
799.826,0.14168596173240117
799.945,0.14068839304668096
800.064,0.14276760490904652
800.183,0.15047649361209892
800.302,0.1549998056981355
800.421,0.16066166518068228
800.54,0.16568044980993546
800.659,0.1715169373776438
800.778,0.1805112828186916
800.897,0.1809883512965586
801.016,0.18885107902701526
801.135,0.18882505230715457
801.254,0.19151615543617778
801.373,0.18795113811742656
801.492,0.18700554207609987
801.611,0.19291063353440752
801.729,0.19847062663394344
801.848,0.2003079924577324
801.967,0.19533763483458555
802.086,0.1822810267124266
802.205,0.16540483076552107
802.324,0.14076157514836535
802.443,0.11795464106188638
802.562,0.10029526493679897
802.681,0.0898090237355276
802.8,0.07878743078634069
802.919,0.06469673359897196
803.038,0.056799555272907094
803.157,0.04843513022193552
803.276,0.047980667545526115
803.394,0.0464017305004624
803.513,0.04553385443259724
803.632,0.04659375677496614
803.751,0.044780198199100466
803.87,0.04146283193420404
803.989,0.03761347713487784
804.108,0.03490204832694345
804.227,0.03684834081848401
804.346,0.040057245163567595
804.465,0.045283033758192086
804.583,0.05351959214649246
804.702,0.06420248441332413
804.821,0.0736761638923138
804.94,0.07737410328799589
805.059,0.07445667385528096
805.178,0.07231083076172018
805.297,0.07056619880969517
805.416,0.07849117046234765
805.535,0.08660156660527607
805.653,0.08980396680562436
805.772,0.10072698721302703
805.891,0.11388353599263114
806.01,0.122616985875215
806.129,0.14334669791704557
806.248,0.1722333432542631
806.367,0.2054593579140287
806.485,0.23606803020214573
806.604,0.25675962897142135
806.723,0.2722865328251826
806.842,0.2766531775062138
806.961,0.26510579847400395
807.08,0.2552846042042451
807.198,0.24644673236640824
807.317,0.23587851795456916
807.436,0.23484970917897996
807.555,0.23127631973389262
807.674,0.22918172526394376
807.793,0.2424509374452587
807.912,0.25607425657704025
808.03,0.28326797964421935
808.149,0.3109287635423468
808.268,0.3396865167214696
808.387,0.3613441137078701
808.506,0.36273099344368337
808.624,0.3542659387082948
808.743,0.3485415747539151
808.862,0.33068887450390516
808.981,0.31492339565273175
809.1,0.2949599130717603
809.219,0.2815456766529416
809.337,0.2684259518856853
809.456,0.2527678831662582
809.575,0.2509075120803756
809.694,0.25181970833072986
809.812,0.25683566458238216
809.931,0.2652527106831348
810.05,0.27515686738212886
810.169,0.293012838673304
810.288,0.3074344576229673
810.406,0.3133963160025782
810.525,0.3152807471873836
810.644,0.31264217237278447
810.763,0.32095527318475037
810.882,0.32887961861665405
811.0,0.33837145900346094
811.119,0.3499761606270051
811.238,0.3663907572470051
811.357,0.375202795445147
811.475,0.37209092308227254
811.594,0.3779308189897074
811.713,0.38807820766446255
811.832,0.3926354187082698
811.95,0.396710323612107
812.069,0.39536482819001484
812.188,0.4023827707036991
812.307,0.4054798969243496
812.425,0.4027346049465965
812.544,0.40291156152093294
812.663,0.40014409454823857
812.782,0.39664277383671004
812.9,0.40313683209490897
813.019,0.41113047438600375
813.138,0.42644255797627295
813.257,0.4439229402906323
813.375,0.46414193448022467
813.494,0.4695050679964242
813.613,0.4780544710982315
813.731,0.4769764615526161
813.85,0.48008952605087973
813.969,0.4724428672225378
814.088,0.47373065244970736
814.206,0.47810977056539283
814.325,0.48101633042326697
814.444,0.4769065832880399
814.562,0.479346082314966
814.681,0.4766596926675247
814.8,0.4798004759094649
814.918,0.46267608564955304
815.037,0.46007423817032456
815.156,0.4537525352897166
815.274,0.45101348002928954
815.393,0.45715828211716436
815.512,0.4637244091089214
815.631,0.47627293395464787
815.749,0.48991357730122664
815.868,0.48960545586122434
815.987,0.48976786009512985
816.105,0.4743259975763786
816.224,0.4588252327273148
816.343,0.444235028608022
816.461,0.4229708439800322
816.58,0.4020178022498103
816.698,0.3812061261123384
816.817,0.36688132896374726
816.936,0.35191276399327087
817.055,0.33798642378502886
817.173,0.32750275154140185
817.292,0.32881894848083915
817.41,0.33019751259354835
817.529,0.3266213512740924
817.648,0.3232842641188459
817.766,0.32732036278153487
817.885,0.326711492972643
818.004,0.33039417765345735
818.122,0.33195291360006396
818.241,0.3390207498523649
818.359,0.3457878087727314
818.478,0.3472978107555478
818.597,0.33187260080081965
818.715,0.34232287690116525
818.834,0.3503923962126092
818.953,0.45308085008340526
819.071,0.5768271915032315
819.19,0.7076636844471473
819.308,0.8069486091601537
819.427,0.8364061973593302
819.546,0.7797971894160316
819.664,0.6792633690457476
819.783,0.545817237131551
819.901,0.480957659356241
820.02,0.40881806087299866
820.138,0.3682708726421302
820.257,0.33664880346847725
820.376,0.3050004844906991
820.494,0.27783428636540264
820.613,0.25279134400572234
820.731,0.25590925928413016
820.85,0.272686971446292
820.969,0.28974533588817786
821.087,0.3292385584931894
821.206,0.36116525704312225
821.324,0.3823363900780009
821.443,0.3858978052552316
821.561,0.3759096055548222
821.68,0.36332831738348115
821.798,0.33455235321917487
821.917,0.30636749126376905
822.035,0.2877823232121095
822.154,0.2698367651707842
822.273,0.2642731699297286
822.391,0.2612091123996969
822.51,0.2695111257141932
822.628,0.2723241348121607
822.747,0.27018033957218734
822.865,0.27101700224602415
822.984,0.26979832007625215
823.102,0.26856162072309026
823.221,0.2723475577241008
823.339,0.27401855458259816
823.458,0.2804932097202241
823.576,0.28000006566618274
823.695,0.2811159946825593
823.813,0.2821314432531089
823.932,0.27907431540899624
824.05,0.27128698395649775
824.169,0.264742145189296
824.287,0.26394478792340603
824.406,0.2568337938166131
824.524,0.25646122629756485
824.643,0.2592499814948157
824.761,0.2617989695592653
824.88,0.2623522080790106
824.998,0.26616586382369817
825.117,0.2681632488889863
825.235,0.2729186489500809
825.354,0.26597188839957076
825.472,0.2676900071223184
825.591,0.26718646853939854
825.709,0.2665963088824898
825.828,0.2589856844209285
825.946,0.2586179676820233
826.064,0.25216321483176973
826.183,0.24518180585166366
826.301,0.23821148436902823
826.42,0.23783683794420396
826.538,0.24199628501625498
826.657,0.25121509577784995
826.775,0.25310299180561624
826.894,0.25768514971873335
827.012,0.25709914787337645
827.13,0.2501454576369473
827.249,0.24514593882970787
827.367,0.23800791894783052
827.486,0.23445116074895045
827.604,0.23584566313927618
827.723,0.23769891073744726
827.841,0.24598983655447354
827.959,0.2612478685945752
828.078,0.2786367790548039
828.196,0.2965800643885616
828.315,0.3084411643911145
828.433,0.31389715569863197
828.552,0.3067584428481628
828.67,0.2890221613215953
828.788,0.26124753677260176
828.907,0.2275374859359573
829.025,0.1916326837385508
829.143,0.15865526075155317
829.262,0.13396052957102453
829.38,0.11509539465616929
829.499,0.10839064210749796
829.617,0.10404732179850175
829.735,0.09766855855158865
829.854,0.10152495177883528
829.972,0.11459191849067948
830.091,0.12919401658183707
830.209,0.14577286936604283
830.327,0.16564184102159185
830.446,0.18877892141721714
830.564,0.20108305306505528
830.682,0.21082365481907664
830.801,0.2175505361668762
830.919,0.21803654237592326
831.037,0.20561185074907234
831.156,0.19455715802843002
831.274,0.18335902080926217
831.392,0.1715302821714552
831.511,0.16852649855163768
831.629,0.17738633722534042
831.747,0.18095466773120922
831.866,0.1825930807086053
831.984,0.1850540474045999
832.102,0.1869987524996206
832.221,0.1781622522416865
832.339,0.17104500706028408
832.457,0.17750994628034167
832.576,0.18501295245108235
832.694,0.1801911914187908
832.812,0.1729447880297425
832.93,0.1654592916167526
833.049,0.15599280928988707
833.167,0.14383140813633738
833.285,0.14273075516039085
833.404,0.15117017391347004
833.522,0.15941627851291426
833.64,0.16548159353881944
833.759,0.17367052619770973
833.877,0.18301482627501828
833.995,0.19973949136371744
834.113,0.219787591520484
834.232,0.2439867409857627
834.35,0.26283889713592945
834.468,0.2743234112168961
834.586,0.2737738327307323
834.705,0.26537153416103065
834.823,0.24860094687540898
834.941,0.23654601085774313
835.059,0.22254660497117446
835.178,0.21916763572423717
835.296,0.2205216419600536
835.414,0.22149867328187028
835.532,0.22945667019860067
835.651,0.2372393460615776
835.769,0.2461266138600609
835.887,0.25655712271273035
836.005,0.2726755177678072
836.124,0.28719939209289624
836.242,0.30370515659085157
836.36,0.31675508672094554
836.478,0.3296830543788633
836.596,0.3383984659665529
836.715,0.34968271212445734
836.833,0.3602282537633843
836.951,0.37972833554698815
837.069,0.3876447543482039
837.188,0.39555840127505193
837.306,0.4013654236824898
837.424,0.40444492171216506
837.542,0.40796029698615244
837.66,0.41361625224055365
837.779,0.4198674675154066
837.897,0.42289291399491274
838.015,0.4245608350028647
838.133,0.4184390960691427
838.251,0.4185741705517871
838.369,0.4217160357547343
838.487,0.42089342764335747
838.606,0.4214020121970421
838.724,0.4240463259509972
838.842,0.4212189597032215
838.96,0.4165683930901274
839.078,0.41050555648671827
839.196,0.42182237216844254
839.315,0.4330310847498287
839.433,0.4410743168033642
839.551,0.44451207959505773
839.669,0.44044152769339306
839.787,0.4385164065522857
839.905,0.4250443497641616
840.023,0.42075274088167747
840.142,0.4238370896914966
840.26,0.4191747426123403
840.378,0.4187055484828387
840.496,0.41627525323822856
840.614,0.408235377242097
840.732,0.4087675227279074
840.85,0.3986064698719357
840.968,0.3995377652666869
841.087,0.4030732366298405
841.205,0.4100021751875832
841.323,0.4201153044251579
841.441,0.4356516058630296
841.559,0.44462480176690994
841.677,0.4541010928685177
841.795,0.45996632463767584
841.913,0.46992838672221326
842.031,0.4881374680190862
842.149,0.5043958427297291
842.267,0.5141971361009434
842.385,0.5285900393621614
842.504,0.5387696935845594
842.622,0.5448511315543945
842.74,0.5450132318121237
842.858,0.5444809775407583
842.976,0.5441288951032901
843.094,0.5392330176086599
843.212,0.5373383870855974
843.33,0.5376709576169374
843.448,0.5385384999012333
843.566,0.5369453107156521
843.684,0.5444279311783322
843.802,0.5529479256231037
843.92,0.5612711169877722
844.038,0.5704189409768151
844.156,0.5845790067911518
844.274,0.5957322818851859
844.392,0.5992296399757848
844.51,0.5967757837990504
844.628,0.5924024046227216
844.746,0.5807826528807776
844.864,0.555803159655377
844.982,0.523921006285949
845.1,0.4967080752888189
845.218,0.4698000504721297
845.336,0.44469928774314504
845.454,0.4161094281538873
845.572,0.39296214388550027
845.69,0.3728826315735042
845.808,0.35229378734645334
845.926,0.3360262952585609
846.044,0.32189938315108246
846.162,0.3071730532116006
846.28,0.289074045135287
846.398,0.26811099786860426
846.516,0.2538032209586368
846.634,0.23565016133215388
846.752,0.2222952162360641
846.87,0.2033646458494566
846.988,0.19485632308519402
847.106,0.18202210368577781
847.224,0.16593604047415167
847.342,0.15530208131231765
847.46,0.15314699323086553
847.578,0.14752834658003527
847.696,0.146882842903108
847.814,0.14569872979890014
847.932,0.1557936312862685
848.05,0.157497682378332
848.168,0.17037446607778015
848.285,0.18066578396080743
848.403,0.19293552717374118
848.521,0.20516923601989567
848.639,0.2166011802052089
848.757,0.2300489700243919
848.875,0.24000350517175048
848.993,0.24556323350920822
849.111,0.2640592995204647
849.229,0.269318972457625
849.347,0.2779118243218782
849.465,0.28236765369242167
849.582,0.2814328803864876
849.7,0.2865601963225928
849.818,0.2925232323805429
849.936,0.29742186868131726
850.054,0.3068830101912353
850.172,0.3166414352270833
850.29,0.3292431103955432
850.408,0.3309610208594457
850.525,0.33057992945844894
850.643,0.33047186768266523
850.761,0.3318924946206376
850.879,0.33021485898417485
850.997,0.32921356069341756
851.115,0.335262524856765
851.233,0.33434438279703704
851.35,0.3406580609624945
851.468,0.34833203647387373
851.586,0.36559808323448806
851.704,0.3982556553900424
851.822,0.4349282875671303
851.94,0.48090194418485066
852.057,0.5375985967938051
852.175,0.5881486179925071
852.293,0.6410575042780748
852.411,0.6838462772473712
852.529,0.7244043843193055
852.647,0.7556753263224456
852.764,0.7830212942210006
852.882,0.8108495682595258
853.0,0.8326379280509528
853.118,0.8389980351120685
853.236,0.8341673923824098
853.353,0.815795450398214
853.471,0.795090283165053
853.589,0.7605174284705647
853.707,0.7340065703743714
853.824,0.7096085735149157
853.942,0.6830686107378621
854.06,0.6561045511825591
854.178,0.6206814240257956
854.296,0.5786910335234895
854.413,0.5461527346148524
854.531,0.5033661232004403
854.649,0.46046309306258715
854.767,0.4187277150021042
854.884,0.3828992012190726
855.002,0.3409843442932845
855.12,0.29410991115518775
855.238,0.2514383325270325
855.355,0.21614548346554796
855.473,0.1860970207076476
855.591,0.15577496872135946
855.708,0.13222236603120602
855.826,0.1161058144618023
855.944,0.09601984678790798
856.062,0.08197888666975375
856.179,0.07168640956835867
856.297,0.059883991771692964
856.415,0.056119944386548985
856.532,0.05130994498693435
856.65,0.03875573377248656
856.768,0.032663947571970595
856.886,0.031984682901282174
857.003,0.0358352305635196
857.121,0.03555162339592023
857.239,0.033342100646961435
857.356,0.03795947289799152
857.474,0.038981536137689045
857.592,0.030346930590481675
857.709,0.03688974132029167
857.827,0.04587605265552899
857.945,0.05154200728485381
858.062,0.05556647433475834
858.18,0.055020725917150876
858.298,0.0552345305320088
858.415,0.053014098784167504
858.533,0.05374585461034147
858.651,0.060071427207244996
858.768,0.06347420852139514
858.886,0.0666302949788293
859.003,0.06589352210901053
859.121,0.05710397418236032
859.239,0.052106363687521674
859.356,0.04452319906937874
859.474,0.041742581409447116
859.592,0.03994154008237133
859.709,0.04348267209310967
859.827,0.043657340406239004
859.944,0.04340460437081206
860.062,0.043618880606136626
860.18,0.047483158896480526
860.297,0.04647204500747185
860.415,0.04917255779737899
860.532,0.050874363730978325
860.65,0.06232546833090416
860.768,0.06589073264514239
860.885,0.07762625796177575
861.003,0.08661454526651624
861.12,0.0957979591554736
861.238,0.10054858833648583
861.356,0.10225651707144463
861.473,0.10518475957356135
861.591,0.1106825296144848
861.708,0.10982092688743897
861.826,0.11396948707991127
861.943,0.10668143453461455
862.061,0.10077760831100317
862.178,0.09053197318630615
862.296,0.08910855486493914
862.414,0.0907114954883132
862.531,0.0966663125285979
862.649,0.10078639171851025
862.766,0.10327287855554901
862.884,0.09871119163123612
863.001,0.09906753447937502
863.119,0.09575723545777702
863.236,0.1033168734445563
863.354,0.09924569382046959
863.471,0.10702357812473497
863.589,0.10698282182011559
863.706,0.10788890268465356
863.824,0.12312836656873791
863.941,0.13799179058002106
864.059,0.14455851496882224
864.176,0.15120209330337314
864.294,0.14047374035923
864.411,0.13819821829921988
864.529,0.1311717035730665
864.646,0.13148372623525303
864.764,0.13986606111883781
864.881,0.14607524649818918
864.999,0.15498770235458628
865.116,0.17117078467731595
865.233,0.18353075927847137
865.351,0.19918787843994035
865.468,0.21714426738937093
865.586,0.23302868024898687
865.703,0.2384956962664015
865.821,0.2406600239747672
865.938,0.23900678771029393
866.056,0.2346676051835727
866.173,0.2329222040963751
866.29,0.23428546011249118
866.408,0.23807618510607237
866.525,0.24243445137642888
866.643,0.24371039334996414
866.76,0.24374592154397823
866.878,0.2358469593606088
866.995,0.22349983178576105
867.112,0.22831753623255416
867.23,0.23330848282732508
867.347,0.23816637945244895
867.465,0.24264452928920527
867.582,0.2520725537779833
867.699,0.2589449100997927
867.817,0.25597780538505444
867.934,0.25694052555504454
868.051,0.2677177598922734
868.169,0.2768180102370771
868.286,0.2870283962661224
868.404,0.2992054271590117
868.521,0.3207479285715811
868.638,0.3451426887084568
868.756,0.3644635328153586
868.873,0.39021928326674804
868.99,0.41943849074051
869.108,0.44955093472924557
869.225,0.48103268465559756
869.342,0.5095436782284265
869.46,0.5442200133634895
869.577,0.5757911562381983
869.694,0.5949352933541632
869.812,0.6072128046928797
869.929,0.6152569709036108
870.046,0.6166417089460748
870.164,0.6122581764294701
870.281,0.6007834963118377
870.398,0.5956099796004541
870.516,0.5860180951470446
870.633,0.5763063271272346
870.75,0.5572893768552409
870.867,0.5339337502292909
870.985,0.5138413127026512
871.102,0.4881760217598612
871.219,0.4688638668677133
871.337,0.45127997564379185
871.454,0.44016078841381023
871.571,0.4275967616696936
871.688,0.40216985192252086
871.806,0.3759640454780399
871.923,0.3521593752045311
872.04,0.3274316707665966
872.157,0.306208308497957
872.275,0.28740895036382286
872.392,0.27420254173500413
872.509,0.26306603029022435
872.626,0.2491271538597555
872.744,0.2327774396980275
872.861,0.22156470170813736
872.978,0.19910716237730372
873.095,0.18293969895524836
873.213,0.1720796819786411
873.33,0.15875408275201386
873.447,0.14821213835909408
873.564,0.1352517335804041
873.681,0.12303003332069148
873.799,0.11194341561452942
873.916,0.09651049889990017
874.033,0.08941841305085375
874.15,0.08676785095753473
874.267,0.08247697343310237
874.385,0.07511520435327121
874.502,0.06958297017502421
874.619,0.06503366221775987
874.736,0.06054526526935154
874.853,0.06197351639627201
874.97,0.060423449698687556
875.088,0.0677376758530254
875.205,0.07282807498535378
875.322,0.07754273288398439
875.439,0.07791909913288533
875.556,0.07283071783375168
875.673,0.07026646846055332
875.791,0.060470984377664655
875.908,0.05426456158170736
876.025,0.04813924167138132
876.142,0.045292249233750026
876.259,0.04550353661037078
876.376,0.04474785257265916
876.493,0.04529599113305074
876.61,0.04695648429434465
876.728,0.05202293637832404
876.845,0.06085236377287544
876.962,0.060501612099076646
877.079,0.06490069738076108
877.196,0.0625863658695625
877.313,0.06104230463635052
877.43,0.05366984787510663
877.547,0.04765551044625724
877.664,0.04964258084162408
877.781,0.0515318642882385
877.898,0.057644228392463
878.016,0.06141763802806262
878.133,0.06101246866563534
878.25,0.05993641980724802
