wavelength_nm,intensity
792.446,0.2799938773857717
792.565,0.24486970086400328
792.684,0.2164342098577675
792.803,0.19468740436706433
792.922,0.17962928439189363
793.041,0.1712023938604505
793.16,0.16783218225518895
793.279,0.17032013000903273
793.398,0.1755338373779049
793.518,0.19072112005477987
793.637,0.22038497286155445
793.756,0.23893248267623673
793.875,0.25128054588064797
793.994,0.2581752744972832
794.113,0.24657786170966478
794.232,0.2296696199152094
794.351,0.2155252602478807
794.47,0.20516864446117594
794.589,0.1961780853579936
794.708,0.18715394213701048
794.827,0.1860284203512511
794.946,0.18530227726366438
795.066,0.18508624969510737
795.185,0.19015019005216485
795.304,0.197106640831245
795.423,0.19249653990392918
795.542,0.1872610482424294
795.661,0.18167791557774757
795.78,0.16910020962188715
795.899,0.1610935744023847
796.018,0.15529532184800524
796.137,0.1500761684059761
796.256,0.15040837886854694
796.375,0.14872463458420535
796.494,0.14722151839290104
796.613,0.14067443077944786
796.732,0.12983765287607646
796.851,0.13209141948417352
796.97,0.13702102337002747
797.089,0.13673419685043064
797.208,0.14891887786013486
797.327,0.16746547999595757
797.446,0.1807194067021331
797.565,0.19481656706876865
797.684,0.20666086850616655
797.803,0.21366633394365891
797.922,0.212361091743722
798.041,0.19475666026404287
798.16,0.17712227538200087
798.279,0.1578477148008724
798.398,0.14060817022270555
798.517,0.13688033314680745
798.636,0.13513849741545894
798.755,0.14020516080909487
798.874,0.15260496170849666
798.993,0.15434861279756412
799.112,0.15312506169498058
799.231,0.15665502477951126
799.35,0.15481788276791697
799.469,0.15724320068045644
799.588,0.15140137954082178
799.707,0.15247244059501208
799.826,0.14992730907302085
799.945,0.14468274062292613
800.064,0.1464436376103237
800.183,0.16123154158902603
800.302,0.16580805839854096
800.421,0.1823069370273694
800.54,0.19020646614145276
800.659,0.19757863383817637
800.778,0.2001473650105142
800.897,0.20034433132302204
801.016,0.19430826690745795
801.135,0.19260999976136461
801.254,0.19188839506807537
801.373,0.20065384981410583
801.492,0.19726003855849772
801.611,0.2054182561475339
801.729,0.21462847353471126
801.848,0.21971238282667738
801.967,0.21321158683505786
802.086,0.19963271109718728
802.205,0.17983714285071534
802.324,0.15821617807009192
802.443,0.12538705010738244
802.562,0.1064117150921252
802.681,0.08801480142956761
802.8,0.07901028124437831
802.919,0.06983869338997237
803.038,0.05996709121255344
803.157,0.056218448060284386
803.276,0.05780733779705596
803.394,0.05436871538224748
803.513,0.057159099486008044
803.632,0.055093885965727854
803.751,0.04906249581701347
803.87,0.04730456196354196
803.989,0.04591452024271554
804.108,0.0555571553023335
804.227,0.06661867142925211
804.346,0.06901999507853085
804.465,0.07868859290646141
804.583,0.08407626860661828
804.702,0.08487344330456807
804.821,0.0837950157217335
804.94,0.08038973008123812
805.059,0.08287954536106867
805.178,0.08477341080385972
805.297,0.0780619652267496
805.416,0.07400462417324419
805.535,0.07313373304631077
805.653,0.07721424498392032
805.772,0.08768450395710231
805.891,0.11161119820838218
806.01,0.1384011020535299
806.129,0.17322328067802953
806.248,0.20459746096409503
806.367,0.22541227761199856
806.485,0.2333925151868077
806.604,0.24021818525235394
806.723,0.2509831815680579
806.842,0.25908595578889704
806.961,0.251204505294235
807.08,0.24643911632417909
807.198,0.24528538153600754
807.317,0.23483883058444577
807.436,0.22323408140818335
807.555,0.21717615774222382
807.674,0.2236678019874809
807.793,0.2343765222138976
807.912,0.2535802088862188
808.03,0.28144224419915154
808.149,0.315771491385903
808.268,0.34717256657196105
808.387,0.3646507557324043
808.506,0.3771757413566471
808.624,0.37116864770681873
808.743,0.35997416937504323
808.862,0.34335267914241707
808.981,0.3113850624325065
809.1,0.27766925623923083
809.219,0.26017367126492214
809.337,0.23520607391934656
809.456,0.23062675911548525
809.575,0.2296218836602692
809.694,0.24395768860918082
809.812,0.2580593124123457
809.931,0.267562635113368
810.05,0.28695874970389884
810.169,0.31154224897637683
810.288,0.32144858109100927
810.406,0.33259571020655543
810.525,0.33745988625675805
810.644,0.33016661166304107
810.763,0.3295865299140629
810.882,0.33548455218521733
811.0,0.3487302348238893
811.119,0.3597357660373564
811.238,0.37767959445271404
811.357,0.3929693698829423
811.475,0.394586778652773
811.594,0.38716189062443085
811.713,0.39002645014719195
811.832,0.3943741569263487
811.95,0.3923735577622792
812.069,0.38584182573166914
812.188,0.3917298635353694
812.307,0.39214550549524463
812.425,0.3874409310087743
812.544,0.38435293257104375
812.663,0.3824939313090536
812.782,0.38278703662289837
812.9,0.3782013680670203
813.019,0.37663554707664343
813.138,0.38682961338973243
813.257,0.39451213229863136
813.375,0.4076561549050415
813.494,0.41692711181803643
813.613,0.42679169070513345
813.731,0.4355951930054944
813.85,0.4491830705741918
813.969,0.4601849710722211
814.088,0.4641741447018822
814.206,0.469719987575557
814.325,0.4829193785923952
814.444,0.489710556861281
814.562,0.4901552445446593
814.681,0.48753833143500014
814.8,0.4904927511648498
814.918,0.4854033208419585
815.037,0.47387209365331406
815.156,0.4758834350481608
815.274,0.47718769461147026
815.393,0.4854311590555298
815.512,0.4882221965906729
815.631,0.4884653795672462
815.749,0.4825336232627544
815.868,0.47728262610287525
815.987,0.4716540345374509
816.105,0.4680858739830538
816.224,0.4529684076205911
816.343,0.44772830260702584
816.461,0.42866334088467006
816.58,0.4011805654194659
816.698,0.3656711857998506
816.817,0.34776442230219534
816.936,0.33417457946024287
817.055,0.32584382793013666
817.173,0.3257157702531813
817.292,0.3349440662597798
817.41,0.3325114119585959
817.529,0.33539503273740584
817.648,0.32310317066451394
817.766,0.3243130316264363
817.885,0.31663217815971956
818.004,0.3132310305154665
818.122,0.32337154377584515
818.241,0.32596016892532265
818.359,0.33017847998735844
818.478,0.33434065065959584
818.597,0.3080343914562591
818.715,0.3149968029135674
818.834,0.3203399852676011
818.953,0.42621077197715107
819.071,0.5610437692914402
819.19,0.6935593924599043
819.308,0.7994427688957515
819.427,0.8335121958041969
819.546,0.7779363326989437
819.664,0.6795229972958516
819.783,0.5381223758182242
819.901,0.46296615321904133
820.02,0.3921868395998712
820.138,0.3491431268224263
820.257,0.3214640689310849
820.376,0.2891095564407775
820.494,0.26004265055695885
820.613,0.2815586644989844
820.731,0.3170384888206117
820.85,0.36400023534146975
820.969,0.4132798744684937
821.087,0.4402275714146947
821.206,0.44898778785247373
821.324,0.4214133003441809
821.443,0.37355218796277134
821.561,0.36264246122356814
821.68,0.34311928127764857
821.798,0.32904493599334306
821.917,0.3155621992568078
822.035,0.29795587746163976
822.154,0.2830381004482614
822.273,0.2704966266890104
822.391,0.2605293301752541
822.51,0.26495055894202757
822.628,0.2646936108670239
822.747,0.27143123608319897
822.865,0.27435116401638715
822.984,0.27845652054006054
823.102,0.274963697330999
823.221,0.2755309216604063
823.339,0.2773725271085281
823.458,0.2915631034399204
823.576,0.29317778917317094
823.695,0.3053106575301142
823.813,0.31371024273800263
823.932,0.3124085562957332
824.05,0.30248573604609136
824.169,0.29064952876065886
824.287,0.27516536013896287
824.406,0.2789403215577838
824.524,0.27430745370121057
824.643,0.2771556750044988
824.761,0.28424547961815244
824.88,0.27948281368467276
824.998,0.28116466765352477
825.117,0.2848588456538514
825.235,0.283217687318135
825.354,0.282044891273912
825.472,0.2792409963191977
825.591,0.275689173984269
825.709,0.27489215698787234
825.828,0.2682406113478083
825.946,0.26844476413342155
826.064,0.2722251716253993
826.183,0.2795754800717247
826.301,0.28233747188336195
826.42,0.2874539826564988
826.538,0.2868330553588414
826.657,0.28887162711947006
826.775,0.28369324426834686
826.894,0.2679885096837954
827.012,0.24612063564335201
827.13,0.2373051836022789
827.249,0.22826462720405383
827.367,0.2175439572369251
827.486,0.2152765004881647
827.604,0.22627113955531514
827.723,0.23421870069118017
827.841,0.23455628226913694
827.959,0.23620364444132813
828.078,0.2487767370451202
828.196,0.26319695612796057
828.315,0.27148580451499116
828.433,0.2848730850557396
828.552,0.2806123655315538
828.67,0.26414699606275527
828.788,0.23292807085754824
828.907,0.20655132141893576
829.025,0.17066723952281265
829.143,0.14493107310212283
829.262,0.12426918487222485
829.38,0.11047360057282146
829.499,0.09759542480748157
829.617,0.0915134648721368
829.735,0.08479194006443591
829.854,0.09826656013043061
829.972,0.10624179195953593
830.091,0.12566025094553135
830.209,0.15516710909315856
830.327,0.1788482261905326
830.446,0.21269901216302914
830.564,0.2494634378906653
830.682,0.2729343540430573
830.801,0.2928462613874154
830.919,0.30116801737503107
831.037,0.29228018218684293
831.156,0.2743101123306647
831.274,0.23978942615066745
831.392,0.21214077661581843
831.511,0.20668850591077462
831.629,0.20048830782551663
831.747,0.20129992892976742
831.866,0.2129946195592233
831.984,0.21808322344935951
832.102,0.21985153807150568
832.221,0.19742723794206174
832.339,0.17735701839473178
832.457,0.18071471403707648
832.576,0.17391417997013853
832.694,0.16790528358493348
832.812,0.17060776758890295
832.93,0.17624965412242444
833.049,0.17885535261073263
833.167,0.16739865465427894
833.285,0.16666514764744642
833.404,0.17499784057206885
833.522,0.17829836051474218
833.64,0.18002950370936896
833.759,0.190223844589818
833.877,0.19981911742300795
833.995,0.22122238453921647
834.113,0.24657133165759887
834.232,0.27244219412018433
834.35,0.2853187260304064
834.468,0.29288624429151033
834.586,0.29226559156121523
834.705,0.28530207896085047
834.823,0.2684884353773727
834.941,0.26185259484528156
835.059,0.25111313818946646
835.178,0.2435705264767516
835.296,0.2337314872495438
835.414,0.2329047914181458
835.532,0.24423010015751043
835.651,0.2570285716858165
835.769,0.27284144470646665
835.887,0.28259283830348736
836.005,0.2913439697973573
836.124,0.3057208948623049
836.242,0.31894597545456815
836.36,0.3342115181229499
836.478,0.3564189887086602
836.596,0.37688190052644344
836.715,0.39192869258969
836.833,0.3925343139985568
836.951,0.4046011963661196
837.069,0.4135719861439847
837.188,0.4183202538675334
837.306,0.41674653833478087
837.424,0.4262546739974604
837.542,0.4274257793357859
837.66,0.43120010764310956
837.779,0.43623157117081773
837.897,0.44462144647861435
838.015,0.44116338963357504
838.133,0.44699542591534736
838.251,0.44737503528820327
838.369,0.45343943735800335
838.487,0.44774667516091593
838.606,0.45646059182154775
838.724,0.45951785382987953
838.842,0.45256160266039125
838.96,0.43816420020085856
839.078,0.43236070118291414
839.196,0.43288735453100635
839.315,0.43409749006028986
839.433,0.43486013991184813
839.551,0.44409597191668326
839.669,0.4427764064645868
839.787,0.4375492835224145
839.905,0.4282049292736258
840.023,0.425014637692134
840.142,0.4305271710153683
840.26,0.4269520235974556
840.378,0.42711651308061405
840.496,0.42522420226818336
840.614,0.42313220210666636
840.732,0.4161659664697239
840.85,0.41334963857833934
840.968,0.42183028177208426
841.087,0.4325465379967365
841.205,0.4431057657786981
841.323,0.4580862972852029
841.441,0.47116614925994965
841.559,0.48308780300999576
841.677,0.49228551250273245
841.795,0.4976500941718712
841.913,0.502742372183165
842.031,0.5139415135610623
842.149,0.5289147836366914
842.267,0.5391245550577519
842.385,0.5529432576241183
842.504,0.5618105720120031
842.622,0.5727310559800391
842.74,0.5628175870863545
842.858,0.566696298462519
842.976,0.5608528615747577
843.094,0.5483470618583888
843.212,0.5369313844522594
843.33,0.5431310306721229
843.448,0.5488750221045257
843.566,0.5640924577933559
843.684,0.565607573419426
843.802,0.5892700532168891
843.92,0.5969256163273637
844.038,0.5932460858406108
844.156,0.5904234041972101
844.274,0.5934153133276594
844.392,0.5992627801500432
844.51,0.6008450640117149
844.628,0.5866255666086412
844.746,0.5788923423354351
844.864,0.5559818198528084
844.982,0.5204708994428342
845.1,0.4900357192150909
845.218,0.4584541405878202
845.336,0.43820674787891795
845.454,0.41267212581352525
845.572,0.396335013631277
845.69,0.37867087495646407
845.808,0.3616693418490736
845.926,0.3480543585664154
846.044,0.3407268667433982
846.162,0.3297922591327941
846.28,0.31221707298621015
846.398,0.2881383678114283
846.516,0.2620918148692867
846.634,0.23046031390474414
846.752,0.210448917699307
846.87,0.19344466155533807
846.988,0.18711652415661184
847.106,0.18555914684332997
847.224,0.17691993561783048
847.342,0.17166130532501922
847.46,0.1652055462134086
847.578,0.15480040482317747
847.696,0.1557411205628566
847.814,0.1598940402252384
847.932,0.16707689151743443
848.05,0.1806837709581663
848.168,0.18152493146859566
848.285,0.19026562109310824
848.403,0.19042602245892482
848.521,0.187669143970362
848.639,0.1976524459535074
848.757,0.20639676629345807
848.875,0.21830253210098932
848.993,0.23845456034692675
849.111,0.242124955862366
849.229,0.25037640658161775
849.347,0.2463760080555635
849.465,0.24788158949113515
849.582,0.24829977165304604
849.7,0.2530194439300481
849.818,0.26773175277110217
849.936,0.26799926024233844
850.054,0.2693995509302098
850.172,0.27718082400024896
850.29,0.27591889259325575
850.408,0.27264372947592846
850.525,0.2713917825363895
850.643,0.2819115227254897
850.761,0.29331806516030523
850.879,0.2888529350581955
850.997,0.30505837562309956
851.115,0.3159647870063402
851.233,0.3173423857227248
851.35,0.32186146097178103
851.468,0.3334967384791864
851.586,0.3629143525227296
851.704,0.3922194143876968
851.822,0.4264758644311455
851.94,0.47315753038206126
852.057,0.5184295710641996
852.175,0.5689833950296712
852.293,0.6141800983664722
852.411,0.6633696810061402
852.529,0.7142430079301498
852.647,0.7535724751192504
852.764,0.7842799008221188
852.882,0.8048104311524604
853.0,0.8250713808615355
853.118,0.8268819423938932
853.236,0.821319428550668
853.353,0.8079581379467615
853.471,0.7800449398676184
853.589,0.7584373868253058
853.707,0.7247867506753685
853.824,0.6980871192313546
853.942,0.6794485837384123
854.06,0.6490038693201705
854.178,0.628610790591847
854.296,0.5956844821717776
854.413,0.5555030966278579
854.531,0.5139438545752424
854.649,0.4613299916929792
854.767,0.4213464801404265
854.884,0.38657667595674605
855.002,0.3405598230252076
855.12,0.302901784710651
855.238,0.2711182439746702
855.355,0.23494970666852558
855.473,0.20187816963093802
855.591,0.17241465605979678
855.708,0.15386144237964505
855.826,0.1337662211077194
855.944,0.10704057017809361
856.062,0.09589328502775746
856.179,0.09161023744220291
856.297,0.08231380517026034
856.415,0.07741109483395411
856.532,0.06800343658973063
856.65,0.05832751099604081
856.768,0.048795805415569264
856.886,0.03295983499365092
857.003,0.02964604061357496
857.121,0.02881762857799959
857.239,0.03175837002210288
857.356,0.030018660432672498
857.474,0.03301765005532513
857.592,0.02943210496911747
857.709,0.0416291488071763
857.827,0.03739124542066394
857.945,0.04343394273318313
858.062,0.04967595782344951
858.18,0.06266942598712574
858.298,0.06570817711944253
858.415,0.07557092033567062
858.533,0.06734209576124012
858.651,0.07390202491916636
858.768,0.06632835751190364
858.886,0.06282827952830942
859.003,0.06411658336325379
859.121,0.06434578698925653
859.239,0.06170132609415787
859.356,0.058503112119092246
859.474,0.05667120173484616
859.592,0.06373036079993025
859.709,0.0611767923127499
859.827,0.05816112543917436
859.944,0.05414041285843463
860.062,0.05035249291425976
860.18,0.049416939160378245
860.297,0.05159060673077957
860.415,0.05798561699678051
860.532,0.06312733258473786
860.65,0.0737727104006082
860.768,0.0857271318255641
860.885,0.08842070687116864
861.003,0.10037370802907232
861.12,0.112077999141163
861.238,0.11977048188409925
861.356,0.11503630818599916
861.473,0.11709974146656954
861.591,0.11971504349370585
861.708,0.11906088626898308
861.826,0.11754624948546996
861.943,0.1190060763244836
862.061,0.11341414610417122
862.178,0.1132401509961147
862.296,0.10718711991518469
862.414,0.11229309273274271
862.531,0.11114152749302281
862.649,0.10885539240460401
862.766,0.10859094154543752
862.884,0.10190798078640179
863.001,0.0936529760451786
863.119,0.09550817963190489
863.236,0.09717645717601522
863.354,0.10645893998786848
863.471,0.11135489428102177
863.589,0.11556830279749897
863.706,0.12030362665817901
863.824,0.1327197290278071
863.941,0.14365540717761788
864.059,0.14463838663319412
864.176,0.15077879736835456
864.294,0.15185072935216004
864.411,0.14751471069116392
864.529,0.14163745332676506
864.646,0.13436327819762134
864.764,0.1453561401155795
864.881,0.15674293465855332
864.999,0.16359587329840797
865.116,0.18149707901589351
865.233,0.19969691107814908
865.351,0.21190152427351733
865.468,0.21722593171400206
865.586,0.22187230304645297
865.703,0.228203326342105
865.821,0.23418580095571556
865.938,0.237343578958614
866.056,0.23380904073054182
866.173,0.23175855743772494
866.29,0.23233398908539324
866.408,0.23891008567310573
866.525,0.24615695693797623
866.643,0.25229192159997965
866.76,0.2635162416271061
866.878,0.2661729808995694
866.995,0.25600784860297165
867.112,0.249349079740558
867.23,0.2468184343310745
867.347,0.24889153609689035
867.465,0.2538356260952518
867.582,0.2598516848266631
867.699,0.26808429533293265
867.817,0.2734958399439282
867.934,0.28010007457628505
868.051,0.29740493528309103
868.169,0.3066595921851396
868.286,0.32384826999793204
868.404,0.33445899911604904
868.521,0.3491905902562204
868.638,0.366204086049133
868.756,0.3926683341269861
868.873,0.41309651778927514
868.99,0.4471888990022262
869.108,0.4730241256304573
869.225,0.5050742294095708
869.342,0.5329726100854073
869.46,0.5718303053106455
869.577,0.6092838213402629
869.694,0.6467600293413676
869.812,0.6543981101946768
869.929,0.6625444912092966
870.046,0.6629120643981445
870.164,0.652288554277509
870.281,0.6392016037322357
870.398,0.6248965481575355
870.516,0.6211296441414367
870.633,0.610825636979339
870.75,0.585504990765949
870.867,0.5586140601256528
870.985,0.544076638762925
871.102,0.5193732141739841
871.219,0.495788049939927
871.337,0.46780336627395425
871.454,0.4519307493089271
871.571,0.4377563994899933
871.688,0.4062653523898365
871.806,0.38446740783010214
871.923,0.3697938346384523
872.04,0.35153220691526477
872.157,0.3307436012472756
872.275,0.31112408595030094
872.392,0.29746075932925586
872.509,0.28992517268858264
872.626,0.26299884257276723
872.744,0.24864658769737435
872.861,0.2281275626506517
872.978,0.20935218869299635
873.095,0.1942347605390588
873.213,0.18601932243263236
873.33,0.16435843738067935
873.447,0.14798750472179506
873.564,0.12796407233234983
873.681,0.1174440376016949
873.799,0.11066545512983021
873.916,0.10563143142589265
874.033,0.1069775446565904
874.15,0.1007360277604164
874.267,0.08490857074350597
874.385,0.07857138172292907
874.502,0.06890880023711747
874.619,0.06505920910845372
874.736,0.06589684803841338
874.853,0.0679437673452224
874.97,0.06995837563883439
875.088,0.07364990813827436
875.205,0.08099484982221072
875.322,0.08506993980314578
875.439,0.0822012861645113
875.556,0.07619900617850303
875.673,0.07150769359790636
875.791,0.06428314733330778
875.908,0.06254874067940236
876.025,0.06348989461193436
876.142,0.06095754142567638
876.259,0.06309744960671132
876.376,0.057896128171966016
876.493,0.05145062835905536
876.61,0.05403208226047157
876.728,0.06260639415302215
876.845,0.07510320539209311
876.962,0.08423013665177395
877.079,0.08591927845922974
877.196,0.08649262632503718
877.313,0.08103490194940921
877.43,0.07006127168194864
877.547,0.06200894377095574
877.664,0.06156243950964754
877.781,0.06078052708446477
877.898,0.06697906414438412
878.016,0.06346215331336497
878.133,0.06533350192057288
878.25,0.07539393576812692
878.367,0.07926029387016681
