wavelength_nm,intensity
792.446,0.2836412283019165
792.565,0.2388111055580923
792.684,0.20214913959239758
792.803,0.17365533040483233
792.922,0.15332967799539637
793.041,0.13087193914387418
793.16,0.12551558028936816
793.279,0.1465987021013057
793.398,0.17609487345395164
793.518,0.2000845327254009
793.637,0.2336276910450421
793.756,0.257602156239981
793.875,0.27330568119804377
793.994,0.2650168655770378
794.113,0.24543438226280015
794.232,0.22861543333503548
794.351,0.2120976846298586
794.47,0.19660240789690836
794.589,0.18190258575773605
794.708,0.1662866501819094
794.827,0.16022957626951373
794.946,0.15575358008340226
795.066,0.15879060784706173
795.185,0.16451073076861
795.304,0.17352975583131985
795.423,0.1755398427767202
795.542,0.16800000575075452
795.661,0.1626570534343459
795.78,0.16157023007925178
795.899,0.16189466830120827
796.018,0.15376226229133838
796.137,0.14757469807479495
796.256,0.14842646012858168
796.375,0.14549400336208182
796.494,0.13029116739769503
796.613,0.127076041051555
796.732,0.11781998066917798
796.851,0.11804839614233346
796.97,0.11424294322476439
797.089,0.11797533683098865
797.208,0.140188248350288
797.327,0.166017827099831
797.446,0.1665530217744871
797.565,0.17384421788101553
797.684,0.16955395260982176
797.803,0.17434795755341156
797.922,0.1637199748389836
798.041,0.14698129205977076
798.16,0.14017596024150916
798.279,0.133778187181408
798.398,0.11851958620814619
798.517,0.1204410169220718
798.636,0.1213712575859979
798.755,0.1313106918513622
798.874,0.13165193860821
798.993,0.13172147952628452
799.112,0.12791742470342302
799.231,0.1374984575169842
799.35,0.1373079115959694
799.469,0.14364634972837803
799.588,0.1446132349297706
799.707,0.14673218863833126
799.826,0.14333748011204345
799.945,0.13721945681357484
800.064,0.1331892783814711
800.183,0.14187028560409504
800.302,0.13548323777447174
800.421,0.14166169121891808
800.54,0.15222318885200076
800.659,0.16305639232385713
800.778,0.16731771082037855
800.897,0.17156294147118326
801.016,0.16860796739448922
801.135,0.16403616482325137
801.254,0.1628311908528684
801.373,0.16628275444830826
801.492,0.1717390423739095
801.611,0.1821191048580746
801.729,0.1878506736992753
801.848,0.2039848223348353
801.967,0.2001387603592687
802.086,0.1895903231042192
802.205,0.17446489374272448
802.324,0.1525325181045874
802.443,0.1191146398716489
802.562,0.09128426393537856
802.681,0.07750461102335071
802.8,0.07163133165228379
802.919,0.06363707080610595
803.038,0.05670184947377141
803.157,0.054157919957277395
803.276,0.046848093166791595
803.394,0.046143861164547884
803.513,0.043522636218627675
803.632,0.047428382059394966
803.751,0.03730984692775459
803.87,0.030102595239273507
803.989,0.029858268750000024
804.108,0.03160695413104714
804.227,0.026064335632841693
804.346,0.036041292865320394
804.465,0.0357721507803221
804.583,0.036356310236030906
804.702,0.03366687319387493
804.821,0.03629302804739793
804.94,0.05115499688628064
805.059,0.054866601282491226
805.178,0.0704266867269232
805.297,0.0756669062085176
805.416,0.07259460631655396
805.535,0.07531672121644792
805.653,0.08187327899245006
805.772,0.08725695701689282
805.891,0.09816860763387661
806.01,0.10649152268090395
806.129,0.1378008045646198
806.248,0.1628415464522319
806.367,0.1855981427017444
806.485,0.21331337050887406
806.604,0.2392723418252472
806.723,0.25096139399077066
806.842,0.25345981740593787
806.961,0.24796883788427407
807.08,0.23872134638772471
807.198,0.2332366232505062
807.317,0.2247443667334424
807.436,0.22358459278643833
807.555,0.221070758491599
807.674,0.21622418656781578
807.793,0.21595281921206466
807.912,0.2297618919353873
808.03,0.2515246168272813
808.149,0.27788846559419544
808.268,0.3088096435450119
808.387,0.3453946369573673
808.506,0.35723562988799423
808.624,0.34740361333039893
808.743,0.3282942724094178
808.862,0.31432589196417837
808.981,0.29538279211560503
809.1,0.2706355550400734
809.219,0.253986760744565
809.337,0.24388214457899013
809.456,0.2292014300761766
809.575,0.22620138533300585
809.694,0.22877041651548616
809.812,0.2459132483790235
809.931,0.25913511473368095
810.05,0.26675394193284063
810.169,0.2749617630390784
810.288,0.2783879188905844
810.406,0.28175955482049425
810.525,0.2819082589917942
810.644,0.28361927173604196
810.763,0.2881027565588276
810.882,0.2977754653945053
811.0,0.30084143225579474
811.119,0.3158776500996304
811.238,0.3344934136154665
811.357,0.3485160971791408
811.475,0.3522917167903855
811.594,0.3615327350993284
811.713,0.3612184668216665
811.832,0.3665367320833167
811.95,0.36078924079939056
812.069,0.3571573012272308
812.188,0.36095615883784454
812.307,0.3609493471672157
812.425,0.3659744561291365
812.544,0.3737201985556185
812.663,0.37460447478386205
812.782,0.3772324947339716
812.9,0.3906938912359693
813.019,0.40011098207859125
813.138,0.41248734276390775
813.257,0.4274887036086912
813.375,0.4391259171602392
813.494,0.4464301375987144
813.613,0.44786855073498316
813.731,0.44145341385380743
813.85,0.4431894521358377
813.969,0.4426553166333784
814.088,0.4398510073464297
814.206,0.4408335981873871
814.325,0.43914650040855335
814.444,0.4382083812247599
814.562,0.43714692189047055
814.681,0.4296976940373834
814.8,0.4336261481829382
814.918,0.4331581516017593
815.037,0.42955570641341334
815.156,0.43056153525373975
815.274,0.4322922109205313
815.393,0.4304004399934113
815.512,0.4297277702639465
815.631,0.42889600961572627
815.749,0.44253347865140347
815.868,0.44397189178767266
815.987,0.4439230729643393
816.105,0.4352431249139136
816.224,0.42472379983652736
816.343,0.41140608337361495
816.461,0.3844128042821699
816.58,0.3606782077175943
816.698,0.3483338059205516
816.817,0.3424897875623245
816.936,0.32584546211284937
817.055,0.3079105339292
817.173,0.3006391661482054
817.292,0.2971430794954325
817.41,0.2902712265497396
817.529,0.29739311807009033
817.648,0.3054641924877357
817.766,0.3205200732541152
817.885,0.32131229125409055
818.004,0.3235354337536597
818.122,0.3267408286111632
818.241,0.33278394069927836
818.359,0.340114080444742
818.478,0.3576356728533704
818.597,0.354236928674883
818.715,0.3769486955247423
818.834,0.39441148515103597
818.953,0.492724726970195
819.071,0.6124689609162504
819.19,0.7334795089402866
819.308,0.8197243833641844
819.427,0.8454257734098902
819.546,0.7874453814329587
819.664,0.6886966882037691
819.783,0.548846952090053
819.901,0.4751729485947717
820.02,0.40085019663947685
820.138,0.3568344780698949
820.257,0.3247064462071573
820.376,0.29392269191097864
820.494,0.2696911596675921
820.613,0.24663672146915563
820.731,0.24415685040416266
820.85,0.2570158464609839
820.969,0.2682026003324589
821.087,0.29290135706767845
821.206,0.32299758604090256
821.324,0.3367905709185077
821.443,0.34536751870702614
821.561,0.33559895976309184
821.68,0.32592782166266515
821.798,0.3059443744577348
821.917,0.2838131998496045
822.035,0.270815452762615
822.154,0.26403387050677674
822.273,0.2525886005314638
822.391,0.2422230037575933
822.51,0.23731386798935597
822.628,0.23053228573351803
822.747,0.23880267068421002
822.865,0.24954522126005851
822.984,0.2595700751630938
823.102,0.2577256740039166
823.221,0.25166268219009746
823.339,0.2497932554931385
823.458,0.2601184158495551
823.576,0.25967276349853774
823.695,0.271645140502519
823.813,0.2794570218502803
823.932,0.27706742147514307
824.05,0.2600021307294088
824.169,0.2568474639135146
824.287,0.25079519733017375
824.406,0.23993981503114553
824.524,0.23222424395452346
824.643,0.23450905652933932
824.761,0.23886741366321637
824.88,0.23581999915210144
824.998,0.24264158421907023
825.117,0.258803951263086
825.235,0.25284284913880767
825.354,0.24090511233071818
825.472,0.23823486842474326
825.591,0.23587744374104058
825.709,0.22793485528596974
825.828,0.22041948851160198
825.946,0.2268120643594545
826.064,0.2284882201046492
826.183,0.22954410002053832
826.301,0.2283601943049588
826.42,0.23691390409410856
826.538,0.23678911488822202
826.657,0.23084052553283424
826.775,0.23418892346337555
826.894,0.22695509398905278
827.012,0.21851199477834674
827.13,0.213189043867504
827.249,0.20334004569498643
827.367,0.2008235300925285
827.486,0.19355752492677278
827.604,0.19414864485528743
827.723,0.20804530696084722
827.841,0.21175568142001877
827.959,0.22785816592720054
828.078,0.24637472106111688
828.196,0.2594920164186156
828.315,0.2714429429616423
828.433,0.27482083527599854
828.552,0.274379651771015
828.67,0.2564036102038667
828.788,0.22728673547779688
828.907,0.19924159984409245
829.025,0.16742148941427598
829.143,0.13448232013746447
829.262,0.11095849634816354
829.38,0.0894143551303339
829.499,0.0769706999201141
829.617,0.06768407659657244
829.735,0.07461185765790163
829.854,0.08605920900800121
829.972,0.09827067149221672
830.091,0.11645828283940343
830.209,0.13354007609087176
830.327,0.14634192328174417
830.446,0.16394296266006503
830.564,0.18503593447436958
830.682,0.2024617864188576
830.801,0.2088473314635247
830.919,0.20855910184331672
831.037,0.200470948358054
831.156,0.1776892291180646
831.274,0.1617403754617057
831.392,0.148480873347681
831.511,0.14940906361750877
831.629,0.15138028255131253
831.747,0.15284473434503543
831.866,0.16003377790633894
831.984,0.16907471126349388
832.102,0.16699447438427023
832.221,0.16757498843277308
832.339,0.1519943566942875
832.457,0.14897595640624928
832.576,0.13494437227159334
832.694,0.11940149497145608
832.812,0.10981222201941884
832.93,0.11457646841053165
833.049,0.11453432863092101
833.167,0.11876550214958692
833.285,0.1169881674513378
833.404,0.12581952746082029
833.522,0.13178646741998876
833.64,0.13925754640631133
833.759,0.14935437787243325
833.877,0.16753495846955094
833.995,0.1816133544490628
834.113,0.2034325695735775
834.232,0.22239108019929638
834.35,0.2377887441273152
834.468,0.2436738389930883
834.586,0.2470376109273478
834.705,0.2493646105820767
834.823,0.23520246214623647
834.941,0.22005448627563592
835.059,0.21541991758099974
835.178,0.20785914850430898
835.296,0.2018088493865895
835.414,0.1946726206829824
835.532,0.1933298039758558
835.651,0.20232700321863406
835.769,0.2066542583574921
835.887,0.22062707077281069
836.005,0.24860792796147674
836.124,0.2713629165997845
836.242,0.29562390635103103
836.36,0.31095882303704286
836.478,0.3161744847671535
836.596,0.3242055194977136
836.715,0.3380809110695244
836.833,0.34514041867262807
836.951,0.35252257695927525
837.069,0.36496883156990567
837.188,0.37340384998180026
837.306,0.38472306162304426
837.424,0.3974365532264157
837.542,0.4018219033636954
837.66,0.4167912684442521
837.779,0.4167739114703525
837.897,0.41394475657282914
838.015,0.4149275273409939
838.133,0.4067178818203895
838.251,0.40409697514797915
838.369,0.4065598277220949
838.487,0.4027117759291715
838.606,0.4139550171878641
838.724,0.42069455541504397
838.842,0.4287497219141799
838.96,0.4263486824665672
839.078,0.4243248136240939
839.196,0.42415819719271086
839.315,0.4244545532102908
839.433,0.42584130765979106
839.551,0.42639775051646045
839.669,0.4209471705362977
839.787,0.425454073285661
839.905,0.41522182805076613
840.023,0.41316667728606565
840.142,0.4135962049154126
840.26,0.4095157731288013
840.378,0.400573236858874
840.496,0.38784469423024703
840.614,0.3880954680182954
840.732,0.38832926019142044
840.85,0.3796691549907445
840.968,0.38503765125516554
841.087,0.38710992668604427
841.205,0.3982405530247184
841.323,0.4043678593454508
841.441,0.41423290848773225
841.559,0.43294001638983803
841.677,0.43887069348514196
841.795,0.443427647310068
841.913,0.4605563587935092
842.031,0.47862620925138666
842.149,0.49914677487346526
842.267,0.5104034226702553
842.385,0.5177578741115019
842.504,0.5268265748907998
842.622,0.5232341410909332
842.74,0.5147831778845767
842.858,0.5111692936237542
842.976,0.5135651135073832
843.094,0.5044465047037769
843.212,0.49762667029926777
843.33,0.5033133484011999
843.448,0.5133267632317594
843.566,0.5182439060469022
843.684,0.5265716721540179
843.802,0.5360094996155966
843.92,0.5519325164394806
844.038,0.5627270855565137
844.156,0.5705069711400497
844.274,0.5825608610690298
844.392,0.5831038973876006
844.51,0.5742864888065817
844.628,0.5659883601345346
844.746,0.5479678100342684
844.864,0.5238410287152496
844.982,0.500899385364039
845.1,0.469520560703545
845.218,0.442727665841561
845.336,0.4074922270550545
845.454,0.3831241280502832
845.572,0.37028743934767044
845.69,0.3435186762542619
845.808,0.32206605240106734
845.926,0.317511029165809
846.044,0.30424533124408043
846.162,0.2906936271762746
846.28,0.2617816055256989
846.398,0.2458256622924299
846.516,0.23232132799256813
846.634,0.20648476618153122
846.752,0.1945409529162046
846.87,0.18966327899740304
846.988,0.18069661095890083
847.106,0.16609383430426072
847.224,0.15545939292644456
847.342,0.15416215844884923
847.46,0.1551833612928939
847.578,0.15060510005826683
847.696,0.15388843276394265
847.814,0.15388358855893483
847.932,0.15221097101461328
848.05,0.1523241043448628
848.168,0.16280764177803786
848.285,0.17189243040305302
848.403,0.18084047233947492
848.521,0.18655932613284146
848.639,0.19983410479789027
848.757,0.2160145271532441
848.875,0.2275142801741999
848.993,0.24316022854407163
849.111,0.25596220329888614
849.229,0.26413445356407267
849.347,0.2661128832282703
849.465,0.270211333450267
849.582,0.2718939255071159
849.7,0.2721554245256427
849.818,0.27909427328587066
849.936,0.28376831087684795
850.054,0.28697477943076544
850.172,0.28838745318725356
850.29,0.29648373306988807
850.408,0.3064274339023412
850.525,0.3167384738786623
850.643,0.32918294095087963
850.761,0.34082837835249336
850.879,0.34584294201114374
850.997,0.3399553088890059
851.115,0.33041394725072926
851.233,0.32316331608869153
851.35,0.3198568884349026
851.468,0.3328697927224493
851.586,0.35543798359660095
851.704,0.3848524465924806
851.822,0.4254023801320428
851.94,0.46494861085271455
852.057,0.5151700209757255
852.175,0.5579552713007239
852.293,0.6022018342783366
852.411,0.6492977334862452
852.529,0.6973669473600237
852.647,0.7363930044025169
852.764,0.7616290963580467
852.882,0.7895080638571728
853.0,0.8085262034431385
853.118,0.8091469976826748
853.236,0.800976678007157
853.353,0.7882016593797925
853.471,0.7673996995089245
853.589,0.7364337962218304
853.707,0.7018195270338363
853.824,0.6791737212899753
853.942,0.6531995190211387
854.06,0.6277142085082531
854.178,0.6030261401275583
854.296,0.5747862329202644
854.413,0.5359783986154105
854.531,0.4910670143994231
854.649,0.4384763651612574
854.767,0.39605412818535013
854.884,0.3527828104632756
855.002,0.3087517889156828
855.12,0.27236606916042155
855.238,0.23889671832594334
855.355,0.2031223367079225
855.473,0.16399077019709737
855.591,0.13240989111152968
855.708,0.11181666826729703
855.826,0.09489504443567635
855.944,0.07980729095284651
856.062,0.07485112983995854
856.179,0.07273115558037212
856.297,0.06520479858622819
856.415,0.05352393227996443
856.532,0.04421912165240134
856.65,0.03139833964962263
856.768,0.026914136813701896
856.886,0.020720359709842782
857.003,0.024758002226437294
857.121,0.020978587825988902
857.239,0.020023429426217286
857.356,0.0219479984812168
857.474,0.019959682399076778
857.592,0.014767168481167433
857.709,0.024417744621528292
857.827,0.031843433632773505
857.945,0.03602884186980507
858.062,0.03698057194924244
858.18,0.03864828501146217
858.298,0.03626350076470616
858.415,0.032178020967620555
858.533,0.02827818347044747
858.651,0.041464880325190634
858.768,0.04200895649242113
858.886,0.043316705875779335
859.003,0.04824774051717083
859.121,0.038884893787173025
859.239,0.03550328837702085
859.356,0.028643608412181297
859.474,0.03265607120174504
859.592,0.042631638855408216
859.709,0.04195605174857486
859.827,0.04301576168879968
859.944,0.04409250180475914
860.062,0.04165636081856568
860.18,0.041774285238286205
860.297,0.044195009867872816
860.415,0.055333796155535284
860.532,0.056280327172744594
860.65,0.0626176352286064
860.768,0.0696609084053478
860.885,0.07475279039357524
861.003,0.0823294335837344
861.12,0.0837722248728694
861.238,0.08890702047760807
861.356,0.08916479544718128
861.473,0.09519707121455426
861.591,0.10310268723873454
861.708,0.1073885379766227
861.826,0.11151529779575538
861.943,0.11628020882832335
862.061,0.10798942446278051
862.178,0.08850346072589256
862.296,0.06911707577235238
862.414,0.06667152798524173
862.531,0.05789388045432749
862.649,0.06039394154518381
862.766,0.07358433281166445
862.884,0.08829118927331017
863.001,0.10142716847832589
863.119,0.09962234902856411
863.236,0.09668164962174752
863.354,0.094856083862246
863.471,0.09113759419889328
863.589,0.09459389035391363
863.706,0.10342181871544895
863.824,0.11981610685675782
863.941,0.13803218201430983
864.059,0.14339587480699253
864.176,0.14349437320423136
864.294,0.1421431779485404
864.411,0.1333799546634121
864.529,0.12353169556160262
864.646,0.12012751243859979
864.764,0.13385688500404672
864.881,0.14457157403599635
864.999,0.15371412303372683
865.116,0.17125989011089407
865.233,0.1920303764850842
865.351,0.20242241483349033
865.468,0.214247165219903
865.586,0.2216388203421158
865.703,0.2292387236894411
865.821,0.2267345661573753
865.938,0.22115047993973835
866.056,0.22526825845857082
866.173,0.2198968893120788
866.29,0.21561591859750706
866.408,0.22356439193536426
866.525,0.22349218041416324
866.643,0.22048751212646228
866.76,0.21867691949863458
866.878,0.21529686814420693
866.995,0.21884799698612384
867.112,0.21401378313273367
867.23,0.2161018117836233
867.347,0.22455437095394187
867.465,0.23004855405077215
867.582,0.2359100762914706
867.699,0.24007343703983428
867.817,0.23681851337431498
867.934,0.24146093441735805
868.051,0.25497848368086573
868.169,0.2674708796645272
868.286,0.2778200170910211
868.404,0.2900121066213015
868.521,0.30661762849323915
868.638,0.32729784417757335
868.756,0.34067864675248816
868.873,0.36261639571035637
868.99,0.39357138219252147
869.108,0.41987876880092845
869.225,0.4441680245410766
869.342,0.46806044675354236
869.46,0.5041921444797082
869.577,0.5344061962896908
869.694,0.5615465757985476
869.812,0.5729342730429846
869.929,0.5816880324358901
870.046,0.5926359952307331
870.164,0.5815981293150817
870.281,0.5724157282721077
870.398,0.5707043440261996
870.516,0.5594135414251111
870.633,0.5518542252611265
870.75,0.525720597447827
870.867,0.5048432263379067
870.985,0.4956206056806407
871.102,0.4698355478578735
871.219,0.45473996974474973
871.337,0.4367485794025923
871.454,0.42492330281602264
871.571,0.4088392159605191
871.688,0.38337233997526343
871.806,0.36435847766087914
871.923,0.3552100398477523
872.04,0.337857694488236
872.157,0.3216994247885928
872.275,0.29552468359179485
872.392,0.2759245086779515
872.509,0.2574290325033323
872.626,0.24194466478538454
872.744,0.22793769756576784
872.861,0.21238719092653952
872.978,0.19224360433514914
873.095,0.17651702516224163
873.213,0.15669698302360127
873.33,0.1355675689974502
873.447,0.1282111384433393
873.564,0.11714288017410188
873.681,0.10042659916635034
873.799,0.08773752232278673
873.916,0.07448142355981624
874.033,0.07257424774071553
874.15,0.06800503398477872
874.267,0.05713584025133214
874.385,0.057693650554455786
874.502,0.053977110041877184
874.619,0.051533890854413344
874.736,0.05644072313286348
874.853,0.05800478999394107
874.97,0.06513518408886962
875.088,0.0694792984988714
875.205,0.07167902302483116
875.322,0.07741627413731045
875.439,0.07445582817856586
875.556,0.06654568607894004
875.673,0.055682340450154744
875.791,0.043246391728930425
875.908,0.03497041790875091
876.025,0.03462594524513415
876.142,0.036767079512690315
876.259,0.04052452062584555
876.376,0.03772394840204977
876.493,0.04121741487050219
876.61,0.038500227437788026
876.728,0.04177694449339513
876.845,0.04982717740481979
876.962,0.053471378574590084
877.079,0.05774710527112509
877.196,0.059158843149983584
877.313,0.060595164021677944
877.43,0.06053387388601343
877.547,0.05736566649608293
877.664,0.06064053275088755
877.781,0.06598216323564188
877.898,0.0642626901775561
878.016,0.05636209142988931
878.133,0.046762771181448705
878.25,0.05117489102403361
