wavelength_nm,intensity
792.446,237.37855521875372
792.565,200.22097946117796
792.684,168.70366344386196
792.803,142.82660716680567
792.922,122.58981063000897
793.041,100.63742967762802
793.16,91.48245132264965
793.279,96.78807902827732
793.398,112.33439937459764
793.518,135.06773270793087
793.637,167.98201842221656
793.756,199.3854816256797
793.875,213.88158552178356
793.994,215.39846863866677
794.113,200.23569807589627
794.232,187.63483227503053
794.351,169.99240803260636
794.47,154.68245132264963
794.589,148.70236474256308
794.708,138.73093617113443
794.827,137.60712664732483
794.946,134.33613097632912
795.066,134.19327383347195
795.185,138.0841829243811
795.304,143.3430573832556
795.423,144.19500543520368
795.542,142.25907469927296
795.661,131.1958712360695
795.78,125.26773270793102
795.899,110.46253790273624
796.018,100.71621755641593
796.137,88.5387283789268
796.256,90.05387989407834
796.375,82.71409837925684
796.494,78.27962575310423
796.613,74.04179127723542
796.732,71.23859597182269
796.851,76.73956110044445
796.97,81.39378011813702
797.089,82.79701823849415
797.208,93.610327152282
797.327,98.33407100146479
797.446,110.77210056493342
797.565,130.6620781803502
797.684,139.2914497351607
797.803,143.69484726399713
797.922,139.40127509586367
798.041,124.70597132599835
798.16,108.0816632271289
798.279,89.90410837501278
798.398,78.82092581726918
798.517,87.9264878482702
798.636,90.07187671909813
798.755,96.47873745139788
798.874,104.08040337850274
798.993,107.97297839651671
799.112,114.12529367427129
799.231,118.42566090007799
799.35,113.69832249817935
799.469,109.51990184519852
799.588,100.10338595412261
799.707,98.06868824486484
799.826,85.64611174772818
799.945,74.30059152764775
800.064,79.43385918635522
800.183,91.46842554636127
800.302,102.42247242584777
800.421,118.68387861269352
800.54,133.23446228871674
800.659,152.754742934437
800.778,155.59017509530872
800.897,154.92690595747928
801.016,154.42727318328633
801.135,152.66357114502415
801.254,153.5024665093594
801.373,166.15088568321852
801.492,163.3828546406274
801.611,173.58711797033044
801.729,180.68055878921086
801.848,181.4614454955369
801.967,167.03280839233898
802.086,147.44313232810197
802.205,122.47077228118081
802.324,100.9259052354326
802.443,64.03230786996275
802.562,43.87556692910208
802.681,20.308668736805956
802.8,4.038710123807024
802.919,-4.585474230107346
803.038,-8.645093784465562
803.157,-6.493046842834142
803.276,-1.4052450635270493
803.394,-2.8607168435132952
803.513,-7.964804787740057
803.632,-23.52933737373896
803.751,-27.826323233844292
803.87,-20.96022643277776
803.989,-18.926980297961066
804.108,-17.297708046606118
804.227,-9.25787970376657
804.346,-7.082047486883924
804.465,-4.610644178449208
804.583,-7.523538282008549
804.702,-2.8624971707452342
804.821,0.25566747784526545
804.94,1.9108798417787485
805.059,-0.9825887836892133
805.178,4.5473628795815655
805.297,2.3840733104297667
805.416,10.815610174467725
805.535,23.547048341090107
805.653,32.5791560832557
805.772,40.743950129918034
805.891,58.45453468275829
806.01,74.5193398426379
806.129,105.19626649145229
806.248,138.8307903485036
806.367,175.79864753888813
806.485,208.2712666340346
806.604,229.87981646511156
806.723,246.96628837411052
806.842,249.55319318354248
806.961,248.4258122786886
807.08,240.54431881972212
807.198,231.8368513347815
807.317,215.43241415287125
807.436,205.9015700445542
807.555,196.3352281007393
807.674,198.43555282359108
807.793,213.42505503562052
807.912,239.77992521301792
808.03,265.36683002245
808.149,301.33295561110265
808.268,335.06531496598916
808.387,361.9240812472824
808.506,368.1949687406967
808.624,369.8087133769683
808.743,360.27960087038286
808.862,332.09161390492295
808.981,302.76336719920323
809.1,277.3459430043058
809.219,259.0886919695815
809.337,240.17516387858
809.456,228.12397344991615
809.575,221.0805752290445
809.694,225.67873544973145
809.812,232.16434155786447
809.931,247.37635459240437
810.05,270.30178754036433
810.169,293.11553217663607
810.288,308.02364910728045
810.406,313.35774006389886
810.525,304.73858426727065
810.644,301.0847964360104
810.763,299.8924804662221
810.882,301.1070909033601
811.0,316.26455848335513
811.119,326.6306840720084
811.238,351.11542437927653
811.357,372.15514304152293
811.475,385.76022966913746
811.594,388.96098729242294
811.713,400.37559772956126
811.832,410.2889094654008
811.95,416.44377964279886
812.069,407.32938575093306
812.188,413.50070614478136
812.307,414.10232956893276
812.425,420.47278416191534
812.544,419.3843642960234
812.663,427.85525178943897
812.782,435.61271936943433
812.9,438.9528709321138
813.019,448.63761123938195
813.138,463.89118271548125
813.257,480.0096892565157
813.375,490.5437802131348
813.494,498.5280876199704
813.613,501.81455952897045
813.731,497.4577413946802
813.85,497.46455962402626
813.969,503.18826097025527
814.088,504.6513562558782
814.206,510.5101225371724
814.325,512.5299277795056
814.444,516.9220273941336
814.562,521.5201876148221
814.681,520.507958225121
814.8,516.8974604371515
814.918,506.61769857991794
815.037,498.98815317290075
815.156,491.5889107961868
815.274,484.83382426362874
815.393,478.0830667353998
815.512,491.7591490340108
815.631,500.4897767871672
815.749,502.67062099054
815.868,508.5744089168565
815.987,510.43663840161463
816.105,494.56986355736854
816.224,468.4623960724298
816.343,446.0051450377076
816.461,428.4855563406477
816.58,400.83263431025443
816.698,377.3520066521553
816.817,366.7536300763072
816.936,352.4877210329267
817.055,333.4815522492863
817.173,318.83122762149003
817.292,307.1531973659879
817.41,300.66997230529114
817.529,300.8993013571484
817.648,296.49832737870275
817.766,306.6419421448461
817.885,318.66780799324073
818.004,330.11531886328055
818.122,344.63036220085297
818.241,350.2094748024946
818.359,364.92993432128253
818.478,373.27004898795957
818.597,345.22074896781226
818.715,357.4416298829276
818.834,371.0001125307074
818.953,496.7143467908205
819.071,638.0297911441644
819.19,813.5927580496908
819.308,957.8648964643032
819.427,1034.7673984204375
819.546,978.9228217765158
819.664,863.9724920166736
819.783,678.9913566570892
819.901,560.6013020635
820.02,437.25123469868277
820.138,377.3034578698097
820.257,328.9784840851144
820.376,303.1348003333424
820.494,264.3191077401788
820.613,251.99519003879016
820.731,244.50503857116797
820.85,255.02008190874068
820.969,288.07192178310993
821.087,323.06402139773894
821.206,354.3842595405065
821.324,373.75211673089325
821.443,379.93902154032753
821.561,375.9986536224891
821.68,347.01586146222644
821.798,314.97159744049196
821.917,287.55330744473156
822.035,261.0735455874994
822.154,245.77819931468287
822.273,241.28112144013468
822.391,243.6965976781405
822.51,247.4739786780511
822.628,239.28685751345938
822.747,244.8858835350146
822.865,252.066727738388
822.984,258.73501782920744
823.102,254.39638151310032
823.221,259.43523437448226
823.339,261.71564567742286
823.458,263.55016953447625
823.576,262.62711763395396
823.695,266.37592720529324
823.813,270.59832985022564
823.932,269.6112086856343
824.05,261.0422693392246
824.169,262.57376289324776
824.287,261.18317852519294
824.406,251.68350324804732
824.524,250.02019160726542
824.643,244.50146871107222
824.761,239.404390836524
824.88,242.58869824336105
824.998,245.6838281610207
825.117,254.2889147886371
825.235,254.14854687079895
825.354,246.05320059798262
825.472,243.29378506109717
825.591,244.2910794809216
825.709,243.03988905226106
825.828,237.88826572316748
825.946,226.55915321658455
826.064,220.56510564506635
826.183,212.8013611038511
826.301,212.61250833752766
826.42,212.90330925085783
826.538,225.70233527241334
826.657,232.17668596929343
826.775,225.21553883067583
826.894,221.41369905136548
827.012,209.30882896902477
827.13,204.4628333455585
827.249,201.49475980001407
827.367,192.78123170901492
827.486,188.8867512370635
827.604,182.49876427160535
827.723,190.11250890787886
827.841,204.11499813289709
827.959,221.410128050556
828.078,253.61694627990323
828.196,278.28956537505127
828.315,288.62885113686616
828.433,288.7551498856942
828.552,268.90915426222807
828.67,255.03978201538553
828.788,217.65953081833104
828.907,179.28266311077851
829.025,145.33112340788566
829.143,108.70392389883357
829.262,81.52528481154556
829.38,66.26829685086781
829.499,46.99722873951454
829.617,36.9517195238719
829.735,26.764264202377785
829.854,33.58127198514022
829.972,50.486269992258485
830.091,71.6134758892635
830.209,96.72046299718625
830.327,126.03428989240194
830.446,155.7493731174888
830.564,175.53123983804747
830.682,194.63492054646994
830.801,204.8018047180958
830.919,202.27604819708102
831.037,186.93384145961596
831.156,160.9059204364367
831.274,137.2728046080625
831.392,125.05267579267532
831.511,118.56328290802432
831.629,115.48081643029983
831.747,114.61133696556237
831.866,123.66306962203731
831.984,132.01090617461605
832.102,135.81069077914282
832.221,130.08006347107357
832.339,120.64416964586022
832.457,122.21509522295044
832.576,110.06004406638374
832.694,104.50315786107637
832.812,101.454373780048
832.93,97.06087081710535
833.049,88.39770805205873
833.167,74.23657125460942
833.285,70.03703406179957
833.404,80.52465921893074
833.522,94.58071785146737
833.64,109.54937706462289
833.759,128.37310950430432
833.877,147.8181572191741
833.995,168.1021102768808
834.113,183.40086103949616
834.232,207.9342438367437
834.35,229.89966126602582
834.468,247.87546830569752
834.586,246.04175153584538
834.705,243.26258022053855
834.823,232.35786777969054
834.941,214.946661832349
835.059,191.5744169239684
835.178,181.9926482060643
835.296,174.22473230201305
835.414,166.72434886549436
835.532,174.9226667276771
835.651,191.4118936807689
835.769,208.05263578537608
835.887,230.7020358986412
836.005,259.54970441017474
836.124,285.6467235710588
836.242,306.38789857609873
836.36,323.30569695776194
836.478,346.98020529613507
836.596,365.4296054094
836.715,379.9837674274272
836.833,391.4556783632035
836.951,400.40464557603616
837.069,396.19863443389045
837.188,405.60820770732903
837.306,406.55977232275904
837.424,416.07843650528855
837.542,426.6395249302424
837.66,432.7053752599581
837.779,433.108887927336
837.897,433.81802830034144
838.015,425.72197386815196
838.133,430.44496705501
838.251,432.72034119424904
838.369,441.39658113435405
838.487,442.0208730225112
838.606,437.3438662093697
838.724,435.3274654568344
838.842,440.0383374315717
838.96,432.00981546691503
839.078,430.6176571386219
839.196,440.47225205708196
839.315,442.92944437813924
839.433,444.8342557468155
839.551,443.3312749076996
839.669,443.3806750209647
839.787,450.0430621472167
839.905,442.7669211349407
840.023,440.562641594526
840.142,447.1488382445875
840.26,435.4138227734368
840.378,427.5342185576975
840.496,418.34638923373325
840.614,414.516135667345
840.732,413.0720292871041
840.85,408.53874541768585
840.968,412.8833836261897
841.087,422.7284547351263
841.205,416.4895431600803
841.323,422.05409478849737
841.441,433.5104213086893
841.559,458.5381764003097
841.677,483.96419989019864
841.795,506.15212814199225
841.913,532.0378918916215
842.031,558.9686772862722
842.149,567.8968652783254
842.267,576.0518930972185
842.385,585.3809468901374
842.504,592.8840266570821
842.622,593.3256345625553
842.74,590.5256840264697
842.858,597.8123135769644
842.976,601.0400686685846
843.094,591.311113803495
843.212,584.8115961678425
843.33,583.7441131642246
843.448,576.9415652255416
843.566,568.1753809232223
843.684,569.6741316858377
843.802,580.4127092882798
843.92,591.2473907868258
844.038,604.3019857052852
844.156,625.003333870498
844.274,637.420699351728
844.392,647.1211817160751
844.51,642.1662528250108
844.628,626.0572113798344
844.746,607.6702478567357
844.864,589.6010332513861
844.982,557.4106065248243
845.1,523.0755910536736
845.218,490.5552941972418
845.336,458.7605384663509
845.454,430.56664853632566
845.572,395.5918062253478
845.69,375.9243232217291
845.808,359.44039000166015
845.926,335.3287511538855
846.044,320.20152789052656
846.162,309.41889337175644
846.28,282.4942675109951
846.398,266.21552909612114
846.516,244.9134140578705
846.634,223.09614750446855
846.752,201.26762553981104
846.87,171.02757452312926
846.988,153.37038991631067
847.106,131.51260032694964
847.224,114.32230473778466
847.342,111.44471363223951
847.46,112.82509271736649
847.578,113.32088413596846
847.696,115.85581902071056
847.814,116.38701706122058
847.932,122.15631033982578
848.05,123.0632659560933
848.168,140.50268910482848
848.285,157.56375727520867
848.403,166.1555613763249
848.521,176.1058070358827
848.639,188.5564855958734
848.757,202.4426619913619
848.875,218.9366305946425
848.993,237.09986326718706
849.111,257.9107149873506
849.229,275.3518697378171
849.347,282.7947560900152
849.465,287.6843956889667
849.582,286.39394870783167
849.7,284.25068787388295
849.818,290.569764702272
849.936,295.7278025696221
850.054,301.37242052355214
850.172,316.93825059869425
850.29,330.1586261283817
850.408,335.00670728577484
850.525,339.6902862786658
850.643,350.2171553148469
850.761,354.13536634237005
850.879,347.11937823569406
850.997,344.8999269255546
851.115,345.19302972796925
851.233,341.20301564726685
851.35,344.81300156656437
851.468,359.20567146854603
851.586,387.64855782074414
851.704,421.57196365346186
851.822,463.54212273293285
851.94,521.5659614660833
852.057,585.9499733594071
852.175,647.6171021358477
852.293,717.0019798300372
852.411,771.6691086064778
852.529,818.6687049153863
852.647,852.2033661593596
852.764,880.3614040267098
852.882,911.5211734957916
853.0,935.739817423748
853.118,940.1541323473755
853.236,934.7164992190552
853.353,918.1221561340252
853.471,897.047293568476
853.589,856.8183184488144
853.707,819.7382610780703
853.824,791.585476434599
853.942,764.1313930898289
854.06,731.6132404809894
854.178,685.6310186080805
854.296,644.3319136182884
854.413,606.5661419618293
854.531,552.1856516906515
854.649,492.2718280861403
854.767,437.2722901959148
854.884,393.6571678901049
855.002,349.1087122509616
855.12,291.7464037979655
855.238,245.85076201163594
855.355,205.9412674114535
855.473,167.83610181560013
855.591,122.78502224471563
855.708,93.74896757493411
855.826,79.14254890981351
855.944,55.38548674094521
856.062,39.13516899800712
856.179,21.901616124049404
856.297,7.807269127598349
856.415,1.076125882044792
856.532,-14.591511303025431
856.65,-22.845306640871414
856.768,-25.161605858087782
856.886,-38.17975682806541
857.003,-36.80131747842108
857.121,-40.68374032294584
857.239,-32.522517902798135
857.356,-20.638079871753938
857.474,-24.39511647204335
857.592,-25.95808089276545
857.709,-27.43832702296891
857.827,-31.32215122498899
857.945,-26.553449558690296
858.062,-23.061893760374726
858.18,-6.264341434551644
858.298,7.249471831900419
858.415,9.222836306863025
858.533,11.457014368292084
858.651,11.81159435534057
858.768,3.4026174773474485
858.886,-0.6628985651269246
859.003,-7.60244358398085
859.121,-8.933863772668795
859.239,-16.9448675428089
859.356,-24.06300609151951
859.474,-23.16264718816825
859.592,-19.949426906851823
859.709,-24.196893692283012
859.827,-22.109999226775145
859.944,-19.506651485529723
860.062,-15.999117582059093
860.18,-16.68279839612252
860.297,-13.44317589433794
860.415,-4.079226147535138
860.532,1.9598591495557414
860.65,6.260344775245194
860.768,11.243940420383552
860.885,15.540498000815116
861.003,24.691224299812614
861.12,40.102677119579845
861.238,53.67084669911591
861.356,64.09707814986771
861.473,79.41456106935959
861.591,83.06912845790782
861.708,78.7474853197446
861.826,74.23276858850791
861.943,68.7119912512106
862.061,60.93580265850204
862.178,53.44359674977599
862.296,51.60593629559544
862.414,56.69121956435854
862.531,49.870009326628136
862.649,48.09728393738253
862.766,55.43278365636203
862.884,56.32066432772225
863.001,54.53148872202596
863.119,56.04188021589658
863.236,64.65703361452904
863.354,63.18474112571555
863.471,62.766994091447565
863.589,66.86180116973381
863.706,77.58864288005476
863.824,92.55790883279995
863.941,111.01721807558852
864.059,123.4566138984637
864.176,134.01289283822197
864.294,127.39168260049098
864.411,118.0328100250977
864.529,105.87047424624123
864.646,99.41809517734158
864.764,104.36917931190506
864.881,115.68563141183652
864.999,123.12156403124851
865.116,143.78693388009776
865.233,166.99516087180422
865.351,189.71680777693058
865.468,208.52936377296612
865.586,223.00339163047363
865.703,230.92763593819762
865.821,232.21118760522893
865.938,221.1631375406585
866.056,216.47699223799293
866.173,210.31032745480786
866.29,209.19128171924163
866.408,214.10686801830747
866.525,218.90990020481922
866.643,218.9458328242314
866.76,228.5185619804401
866.878,227.9129361582939
866.995,223.292591721429
867.112,216.03328624560305
867.23,213.4562318520281
867.347,218.50168828096412
867.465,217.97225293500827
867.582,220.66965741589217
867.699,231.2501787798931
867.817,240.89650100969504
867.934,252.04239033906418
868.051,266.3129549931086
868.169,282.24499150862493
868.286,297.98482023193344
868.404,310.18265761325046
868.521,327.9830923971649
868.638,352.9471635447158
868.756,381.519026900059
868.873,413.96967813418996
868.99,450.9926237406153
869.108,489.49608882755996
869.225,520.6852682002191
869.342,559.9411142395448
869.46,605.6618953438058
869.577,638.8545379199284
869.694,659.1190419679125
869.812,665.2051910375416
869.929,668.8393920552227
870.046,667.9913419906527
870.164,658.1917767745676
870.281,658.3168868831576
870.398,661.6229493726998
870.516,648.4225183557485
870.633,626.6324769491865
870.75,604.9497948499841
870.867,585.7536928373615
870.985,569.6311838983323
871.102,546.891358941987
871.219,522.597421431529
871.337,498.18486920245647
871.454,471.01820441927134
871.571,433.81517599972244
871.688,405.77232074034663
871.806,383.0619330134382
871.923,359.8121513471358
872.04,340.6273047457686
872.157,315.2069603089035
872.275,294.28185396727673
872.392,271.80176927067185
872.509,239.73726898965157
872.626,219.90740074326322
872.744,205.73900435834685
872.861,184.3056729084953
872.978,161.62731981362208
873.095,140.40524377502564
873.213,126.57797293123434
873.33,103.55243368917453
873.447,83.96931868953908
873.564,73.76196126566117
873.681,63.980577867757454
873.799,53.364562435221586
873.916,41.152010206148816
874.033,34.08725480332779
874.15,28.034526299051265
874.267,13.458149213782946
874.385,8.091000813671563
874.502,2.425492077114926
874.619,-0.3643319069145532
874.736,3.309780014080556
874.853,11.167168173006107
874.97,14.181493938797317
875.088,16.66449562939801
875.205,10.674816615350222
875.322,6.732261073039339
875.439,-1.7836189394242263
875.556,-14.186769497259686
875.673,-20.662965871386568
875.791,-21.66300669941122
875.908,-17.15346782828117
876.025,-12.664964543182077
876.142,-8.200903195352172
876.259,-4.218422929684483
876.376,-6.705035578635787
876.493,-13.526419348943787
876.61,-15.279617262955163
876.728,-10.115439119632523
876.845,-3.6080461150690466
876.962,5.141151827596161
877.079,7.637369269267067
877.196,10.84092902417624
877.313,2.8439913646144355
877.43,1.3340138953021574
877.547,-4.00063077960713
877.664,-10.2645947839395
877.781,-14.903509454098003
877.898,-17.215913830642975
878.016,-21.356355360404997
878.133,-22.121841773005034
878.25,-15.635981019081708
878.367,-0.871667344421895
878.484,7.089749028732703
878.601,7.770558231508617
878.718,4.878883353968116
878.835,2.0618948246523954
878.952,-5.2663460475462305
879.069,-8.616384362444753
879.186,-8.956605885696867
879.303,-6.9628640928709125
879.42,-3.7417909520423818
879.537,-10.587755286710287
879.654,-13.076919212396845
879.771,-15.04372591410261
879.888,-17.680266840111567
880.005,-23.248419973392846
880.122,-29.812426072898862
880.239,-37.37228513862964
880.356,-45.92799717058518
