wavelength_nm,intensity
792.446,0.24847190805648892
792.565,0.21013030025313567
792.684,0.17859610781489654
792.803,0.1538693307417715
792.922,0.1359499690337605
793.041,0.11844527703784252
793.16,0.1130732324991798
793.279,0.12074984112808602
793.398,0.13390287339938542
793.518,0.16102689055485409
793.637,0.194190345912232
793.756,0.218768778137934
793.875,0.23293776701887692
793.994,0.23626714412756528
794.113,0.2263283556505364
794.232,0.21231688432613227
794.351,0.19018914693589647
794.47,0.1753666816055378
794.589,0.16778306526904602
794.708,0.16514954885189426
794.827,0.16853902302030624
794.946,0.16645966475386909
795.066,0.1628266393434193
795.185,0.16182586514886388
795.304,0.15983823397358388
795.423,0.16005205298607422
795.542,0.15429285686266567
795.661,0.15012591652161866
795.78,0.1471672433813307
795.899,0.1456926513159017
796.018,0.136699600778734
796.137,0.12747565101210176
796.256,0.12608139922651385
796.375,0.12434364529955833
796.494,0.11576937637856988
796.613,0.11182511145881457
796.732,0.1066719467376716
796.851,0.11473950255509563
796.97,0.11155815399351593
797.089,0.11115265699053868
797.208,0.11973325191781387
797.327,0.13042610034421703
797.446,0.14057997303499362
797.565,0.14811171611993446
797.684,0.14714320455744123
797.803,0.1443711486026108
797.922,0.1347195608109979
798.041,0.12703915657831968
798.16,0.12670451084575343
798.279,0.12196127133198842
798.398,0.12312778689125521
798.517,0.12416335412038745
798.636,0.12669059363192275
798.755,0.13209490080264757
798.874,0.13497386626372315
798.993,0.13532369441137748
799.112,0.13946912633104971
799.231,0.13253329303831562
799.35,0.12862888195816652
799.469,0.12755409349005684
799.588,0.1264596944024583
799.707,0.12666339180488995
799.826,0.12374330730295076
799.945,0.12336311432512033
800.064,0.1277596886943744
800.183,0.1292880518132403
800.302,0.13329241379271917
800.421,0.15092046291122774
800.54,0.1605644594952966
800.659,0.17225744951562647
800.778,0.18173064392995447
800.897,0.18877781493333443
801.016,0.1907799959230739
801.135,0.1858457110194506
801.254,0.18026807127647027
801.373,0.18621325198470765
801.492,0.19082111496393742
801.611,0.20149498537148042
801.729,0.2117367895496421
801.848,0.2177022134779969
801.967,0.21015022717293858
802.086,0.1900322619799863
802.205,0.16780457369042073
802.324,0.14334415507428108
802.443,0.11583270434221837
802.562,0.0896867543118564
802.681,0.07220371415075325
802.8,0.057630161302026334
802.919,0.04550515358181838
803.038,0.0388269608745451
803.157,0.04034848119834353
803.276,0.045100474768591164
803.394,0.045464097743517395
803.513,0.0441421756021479
803.632,0.039995974902476375
803.751,0.038617581544830554
803.87,0.03458622423547566
803.989,0.03164875819929605
804.108,0.029879550595642144
804.227,0.034798209087497235
804.346,0.035387641785888144
804.465,0.040433253040291564
804.583,0.04275160536289291
804.702,0.048001728758199365
804.821,0.0558682701448032
804.94,0.061887795591411734
805.059,0.06832914987978042
805.178,0.07435061095436449
805.297,0.07310358093366925
805.416,0.07559425606002727
805.535,0.07912639028996465
805.653,0.07968942006369065
805.772,0.09210896868565091
805.891,0.09907299139708702
806.01,0.11498935536998364
806.129,0.13969204644511185
806.248,0.17289487870281917
806.367,0.20260638809089865
806.485,0.23411638106628574
806.604,0.25618417705814955
806.723,0.2763649253746917
806.842,0.27649666196680656
806.961,0.27246272341913164
807.08,0.26372856220044116
807.198,0.25643420001260286
807.317,0.236961643122245
807.436,0.22242020813236696
807.555,0.21565027186569563
807.674,0.2157079941842558
807.793,0.22007056378091294
807.912,0.23180988930848695
808.03,0.25760180520132864
808.149,0.2878560859288061
808.268,0.324704595609536
808.387,0.35088745869089566
808.506,0.3643683337491972
808.624,0.3611719584338806
808.743,0.3471897423997465
808.862,0.3233193459388768
808.981,0.30206222267504146
809.1,0.27894651876417464
809.219,0.2720918140132613
809.337,0.2614851549337084
809.456,0.25073932371584806
809.575,0.2463074793727395
809.694,0.25298599987095605
809.812,0.2637517530310073
809.931,0.2755113217786984
810.05,0.29243670726010607
810.169,0.30978909816586575
810.288,0.3234255929788199
810.406,0.32985423622871196
810.525,0.3283424763875423
810.644,0.32934973224973524
810.763,0.32605150823320256
810.882,0.3259877712310578
811.0,0.335891922334861
811.119,0.34422975428207825
811.238,0.3614018540086674
811.357,0.3784588204208388
811.475,0.39316314509498773
811.594,0.40476835928928406
811.713,0.40970659545803095
811.832,0.4104810542888742
811.95,0.4068798145712096
812.069,0.39466634989483634
812.188,0.39003713415558366
812.307,0.38180968604045795
812.425,0.36909583426680703
812.544,0.3628787909495934
812.663,0.35661366998460076
812.782,0.3521723366320627
812.9,0.3556777323768727
813.019,0.36656431225700054
813.138,0.38550769374386495
813.257,0.4034034885896527
813.375,0.41489230426827406
813.494,0.4285053928579683
813.613,0.4315104015055011
813.731,0.43702936505136714
813.85,0.44513439996723464
813.969,0.45334318138620394
814.088,0.45784429052054054
814.206,0.46742771310560904
814.325,0.47485460014754277
814.444,0.4801255842469704
814.562,0.48527890462946544
814.681,0.49546709341554235
814.8,0.5036657532244533
814.918,0.5054517404605403
815.037,0.5014975095920788
815.156,0.49993514170061737
815.274,0.49361814748407473
815.393,0.48293557632908257
815.512,0.48001501488786685
815.631,0.47628598984321124
815.749,0.4781548477616534
815.868,0.4816551827014346
815.987,0.489006157667928
816.105,0.49371792281161164
816.224,0.4836666870840318
816.343,0.46877415874524314
816.461,0.4439004576873047
816.58,0.41313977517896633
816.698,0.3833292588148899
816.817,0.362642741318116
816.936,0.34762495805485094
817.055,0.33922101436432717
817.173,0.3259504740374479
817.292,0.3229116162786716
817.41,0.32151119414814955
817.529,0.32818275603945224
817.648,0.32864091455596156
817.766,0.3288561544310619
817.885,0.32806998751097805
818.004,0.3282472713483582
818.122,0.3204601132707874
818.241,0.3173453434365706
818.359,0.32472164365475953
818.478,0.3340264021251417
818.597,0.3198069049249882
818.715,0.33012323787833353
818.834,0.3436696624940321
818.953,0.4471527565027722
819.071,0.5603243871919267
819.19,0.7041894933919302
819.308,0.8222330862471993
819.427,0.8852853953779536
819.546,0.8463457540529318
819.664,0.7541861143422277
819.783,0.6094544339927268
819.901,0.5169037973367616
820.02,0.40740979621243034
820.138,0.3541374092744542
820.257,0.3175090298988176
820.376,0.30008700458704124
820.494,0.27971235920020154
820.613,0.2698369864473922
820.731,0.2695733476465897
820.85,0.27769040197440265
820.969,0.29687986510582065
821.087,0.3318514487212891
821.206,0.3675138322232648
821.324,0.39624417803627837
821.443,0.40459086639229846
821.561,0.40027731836675307
821.68,0.37653787023602
821.798,0.33838904498544964
821.917,0.3075322071815545
822.035,0.28455883841214064
822.154,0.26719220901462576
822.273,0.25581504236935515
822.391,0.2531019739343441
822.51,0.2624247650604019
822.628,0.266159162232792
822.747,0.27517071384954417
822.865,0.2888375734926765
822.984,0.28890668262255453
823.102,0.2826687634845961
823.221,0.2816434735268755
823.339,0.28253369827276664
823.458,0.28656858074377456
823.576,0.2819830144479012
823.695,0.2900791929549684
823.813,0.2927134976341019
823.932,0.2894696772716372
824.05,0.2824327835396694
824.169,0.2857787639260567
824.287,0.27705282651554103
824.406,0.2732010769489249
824.524,0.2634073096772149
824.643,0.26422098974703745
824.761,0.26312864412267845
824.88,0.26806371728828393
824.998,0.27117310503954906
825.117,0.2809798356465397
825.235,0.2809939085217241
825.354,0.2843569691250857
825.472,0.2823992258407066
825.591,0.2829035642031097
825.709,0.27840466419336457
825.828,0.2683363482488117
825.946,0.2592314830617225
826.064,0.25738381228673163
826.183,0.25149002789076935
826.301,0.2592281544420095
826.42,0.26138421304586845
826.538,0.2685042887828982
826.657,0.2700125643429996
826.775,0.2686823608822604
826.894,0.2594376909562352
827.012,0.25021452945158484
827.13,0.2392124949791154
827.249,0.23601801746568685
827.367,0.22458581456572202
827.486,0.2244480632900252
827.604,0.22679137167997088
827.723,0.23831181739002724
827.841,0.24397627908048863
827.959,0.25407400597666707
828.078,0.2666875855730648
828.196,0.2820561409073189
828.315,0.28473536023108825
828.433,0.29498807428129076
828.552,0.2889608111526797
828.67,0.27530501704294136
828.788,0.2523759303175345
828.907,0.22190875257789472
829.025,0.18689242463486
829.143,0.1536672196804228
829.262,0.11922095388840337
829.38,0.10059004709937942
829.499,0.08141353426652348
829.617,0.07141161095131068
829.735,0.0762422888913494
829.854,0.08286037764339127
829.972,0.10259979251408236
830.091,0.12697101581245096
830.209,0.1500868820453415
830.327,0.1695631507506818
830.446,0.1867426121961463
830.564,0.1995479597130898
830.682,0.21196847436156704
830.801,0.2170729627394796
830.919,0.21567747965781142
831.037,0.21236774707378864
831.156,0.19739665450086946
831.274,0.18532603581040064
831.392,0.17364573170782094
831.511,0.17479709875717653
831.629,0.18106620489246972
831.747,0.18616373466346686
831.866,0.19128277285583872
831.984,0.20058899460937493
832.102,0.20359577930261868
832.221,0.20379444980519773
832.339,0.18834131555323239
832.457,0.18232341967787505
832.576,0.1709916785216929
832.694,0.16325500673824062
832.812,0.16042383369385937
832.93,0.15483230966942635
833.049,0.15574481404606416
833.167,0.14992667195451637
833.285,0.1407041735285554
833.404,0.14598987614017772
833.522,0.15333696233325356
833.64,0.1679656469514984
833.759,0.1806479410228009
833.877,0.19896789185246744
833.995,0.22483564780778392
834.113,0.24153032410990208
834.232,0.26167646944204187
834.35,0.2753005022925974
834.468,0.2849062559498433
834.586,0.2861249904721867
834.705,0.28388086915319233
834.823,0.28294496593428686
834.941,0.2736928948508901
835.059,0.26117407412104315
835.178,0.25188910780495544
835.296,0.24278696307055325
835.414,0.23917579179300358
835.532,0.24226892197809485
835.651,0.24992753090029496
835.769,0.2604992657175188
835.887,0.2687714972495285
836.005,0.2845305572218434
836.124,0.3044445381232609
836.242,0.32400679307513813
836.36,0.33543696694546715
836.478,0.35687361756009284
836.596,0.3704230035364652
836.715,0.380892257051845
836.833,0.3866315556666618
836.951,0.39842927050224775
837.069,0.40656739070097975
837.188,0.40890772613795445
837.306,0.4120375471595089
837.424,0.42059571417567765
837.542,0.4282410384846761
837.66,0.43315795628222237
837.779,0.4387391047398719
837.897,0.4443038055811761
838.015,0.44440410219203186
838.133,0.4413584758765136
838.251,0.44133604796540776
838.369,0.43895591751125007
838.487,0.44331108595053814
838.606,0.44574378107929913
838.724,0.45171461152420955
838.842,0.4538404953480659
838.96,0.44952903517457976
839.078,0.44329004088553736
839.196,0.44193662125171057
839.315,0.44370571832099726
839.433,0.4414894314296652
839.551,0.4432680175083819
839.669,0.4472670317937292
839.787,0.4450551731067979
839.905,0.4403919869837716
840.023,0.4378663583850201
840.142,0.43922426504567164
840.26,0.43857619511281176
840.378,0.4295467994507076
840.496,0.426646038679155
840.614,0.42363900100198587
840.732,0.41469374122349456
840.85,0.41495282059214667
840.968,0.4231497726493455
841.087,0.4364454857736218
841.205,0.44464623343459275
841.323,0.45841766223162855
841.441,0.47120792745359774
841.559,0.48215795744676687
841.677,0.48654538851811696
841.795,0.49838358979393826
841.913,0.5111529791951612
842.031,0.5233688430462984
842.149,0.5324343557666608
842.267,0.5481301556761098
842.385,0.5655656073144004
842.504,0.5773259987128957
842.622,0.5786630295528012
842.74,0.5803315431221296
842.858,0.5808088697076732
842.976,0.5750196544656151
843.094,0.5664786264888441
843.212,0.5561283607140779
843.33,0.5591120509904107
843.448,0.5581653935608191
843.566,0.5558384015594701
843.684,0.5617428089383707
843.802,0.5709038443536626
843.92,0.5779912149081754
844.038,0.5846971272836001
844.156,0.5878750259529344
844.274,0.6009208618288866
844.392,0.6051533057462132
844.51,0.6054731147752179
844.628,0.5980321792917032
844.746,0.5808536223310765
844.864,0.5581467684765057
844.982,0.5325210953212531
845.1,0.5003005606121195
845.218,0.4746527464348633
845.336,0.44304962993931096
845.454,0.42080837014744055
845.572,0.39399910121594656
845.69,0.3660144603163844
845.808,0.34308746144303626
845.926,0.32681289078077813
846.044,0.3116991422721288
846.162,0.3034585995939753
846.28,0.2820517400313203
846.398,0.2671809101640801
846.516,0.24732518734292291
846.634,0.22508519275230976
846.752,0.2102346061051869
846.87,0.1997337813807965
846.988,0.18890273912824063
847.106,0.18024721043767963
847.224,0.1690454642167234
847.342,0.1614242375540375
847.46,0.15670285217317342
847.578,0.15271148791779415
847.696,0.15226205458233635
847.814,0.15458088159793693
847.932,0.15641766693449127
848.05,0.158452456267819
848.168,0.17220680484788073
848.285,0.1815411728354276
848.403,0.18823127019513525
848.521,0.19928314888952003
848.639,0.20823922170112225
848.757,0.22176456885360535
848.875,0.23684484835135847
848.993,0.24132274131260817
849.111,0.24934699339818006
849.229,0.25148616183523825
849.347,0.2506033970691415
849.465,0.25596187010549964
849.582,0.2484146577163683
849.7,0.24506032229405927
849.818,0.2531003893953481
849.936,0.24571891837092807
850.054,0.24546559123035766
850.172,0.25120362464391743
850.29,0.2610301559205691
850.408,0.27103128497073364
850.525,0.2780389478460334
850.643,0.28750616196560075
850.761,0.3002685927599084
850.879,0.2943332467726273
850.997,0.2962257009645044
851.115,0.29879820083220143
851.233,0.3015560526840987
851.35,0.30940950259993005
851.468,0.3211091643380729
851.586,0.3404797412994642
851.704,0.36850049925728434
851.822,0.40420735485344084
851.94,0.4543843172297871
852.057,0.5148777306584782
852.175,0.5679336584959003
852.293,0.6206878358334468
852.411,0.6609399269465949
852.529,0.702413569873704
852.647,0.7350852076535034
852.764,0.7676455077226568
852.882,0.7934053510336114
853.0,0.8122192394417735
853.118,0.8100851906321684
853.236,0.8054846319713804
853.353,0.7926248395026814
853.471,0.7759049179978399
853.589,0.7494277643963978
853.707,0.7189462488154768
853.824,0.6905674977242535
853.942,0.6631091805477449
854.06,0.6350505253746286
854.178,0.6038389886682227
854.296,0.5710579698020871
854.413,0.5391461441997436
854.531,0.5010152218169488
854.649,0.4483882560281892
854.767,0.40796162596395247
854.884,0.36862433418228496
855.002,0.32785989538233884
855.12,0.27957193730562435
855.238,0.23964442913740797
855.355,0.21513086788735633
855.473,0.18882072085188292
855.591,0.1584423191734351
855.708,0.13132123270097132
855.826,0.10759093192683933
855.944,0.0881086954592688
856.062,0.07151486065186707
856.179,0.05672220791071579
856.297,0.05265060568992199
856.415,0.04746393056121891
856.532,0.03836599163545551
856.65,0.0241889849352573
856.768,0.022175186105965205
856.886,0.0193062043976663
857.003,0.020034252961570416
857.121,0.013564087795412474
857.239,0.016513683978903387
857.356,0.02352962199837709
857.474,0.023020416618996342
857.592,0.024248776882953772
857.709,0.030469902481555393
857.827,0.028982561272833326
857.945,0.034094741502675496
858.062,0.03506030821112686
858.18,0.04269203320808447
858.298,0.04905565535882858
858.415,0.047546629238957666
858.533,0.04512530116085403
858.651,0.03944741680301482
858.768,0.0375235762897603
858.886,0.03687460947948984
859.003,0.03460008754443332
859.121,0.03872930039750657
859.239,0.040616097871163596
859.356,0.03610102381842341
859.474,0.027412869260788557
859.592,0.026806839476034794
859.709,0.028842048767591524
859.827,0.025432777776682288
859.944,0.026335497228187094
860.062,0.03546240274979765
860.18,0.04217121568839581
860.297,0.04862863971867644
860.415,0.051554343554918614
860.532,0.05597169458012158
860.65,0.0577658889603298
860.768,0.059367650565759114
860.885,0.06596519848357957
861.003,0.07614262759839907
861.12,0.08034636629838049
861.238,0.0937421501963091
861.356,0.09503690167362434
861.473,0.09284180200008657
861.591,0.09754647738344883
861.708,0.09757180591654178
861.826,0.10104037967148374
861.943,0.09892998045881382
862.061,0.08908798171145976
862.178,0.08513408483033143
862.296,0.07797416213731677
862.414,0.07900687981341896
862.531,0.08028124510388451
862.649,0.08045790351817689
862.766,0.08015878226222448
862.884,0.07833573096603366
863.001,0.07837815088112327
863.119,0.0726768038983459
863.236,0.07517380920368641
863.354,0.08285643193867612
863.471,0.08870009206297391
863.589,0.09903894501700622
863.706,0.11127936157393523
863.824,0.12800563883178023
863.941,0.1367604179830728
864.059,0.13101234149851393
864.176,0.13008341660316056
864.294,0.12740724877142154
864.411,0.12104871268019651
864.529,0.11507036956680201
864.646,0.11834001504392923
864.764,0.12740111927652709
864.881,0.13252491719628495
864.999,0.13812000258440177
865.116,0.15561810140156673
865.233,0.17342174632237903
865.351,0.18849065872545245
865.468,0.19998158197277038
865.586,0.21803953234630802
865.703,0.23096013301441942
865.821,0.23194039681639111
865.938,0.2253395746843857
866.056,0.22606743083551806
866.173,0.22418960499716004
866.29,0.23010794930652687
866.408,0.23152723794479524
866.525,0.24155875154177223
866.643,0.24160213381268422
866.76,0.23818582324540194
866.878,0.23016164969888986
866.995,0.2273899591722218
867.112,0.22396542479676662
867.23,0.22517215962380188
867.347,0.22705387932162757
867.465,0.23000342888064756
867.582,0.23277901326678346
867.699,0.2390263099030584
867.817,0.2484460986921116
867.934,0.25832199253443555
868.051,0.2758460279773757
868.169,0.2912888073519926
868.286,0.31094660471543556
868.404,0.31860966155867326
868.521,0.32712419884810034
868.638,0.34149155715397916
868.756,0.35865058203417716
868.873,0.38300543906549234
868.99,0.42090364295599614
869.108,0.4599398953774765
869.225,0.49980801762565735
869.342,0.5259733776562249
869.46,0.5567763328955697
869.577,0.5864304853932505
869.694,0.6043195313989329
869.812,0.6135735788232749
869.929,0.6264859556832134
870.046,0.6337979191775395
870.164,0.6318131838329362
870.281,0.6197960351182611
870.398,0.6140460608318161
870.516,0.6038217022987908
870.633,0.5904843160720821
870.75,0.5692236069712862
870.867,0.5525486198277165
870.985,0.5321077611416762
871.102,0.5061392381623206
871.219,0.4799948522081946
871.337,0.45329567550272526
871.454,0.4329623589235586
871.571,0.41610138719515966
871.688,0.3970029070431562
871.806,0.3812515168174438
871.923,0.3691584560273279
872.04,0.35044143405441197
872.157,0.3263593261497487
872.275,0.2994691040544209
872.392,0.2781679085133896
872.509,0.2587101112043016
872.626,0.23817372982333196
872.744,0.22489327765320322
872.861,0.2130304834919231
872.978,0.19602274841767264
873.095,0.1813183122324084
873.213,0.1653132491545994
873.33,0.14682459600863335
873.447,0.1293006588213885
873.564,0.11258455263695494
873.681,0.09631126689259016
873.799,0.08128040878293263
873.916,0.07094091693548923
874.033,0.0698683916974276
874.15,0.06479518069489894
874.267,0.05400304454913888
874.385,0.04872233951172417
874.502,0.044292317530308115
874.619,0.035885644780518686
874.736,0.031154320742700206
874.853,0.0324899904074116
874.97,0.033877533424507084
875.088,0.03491832127507938
875.205,0.043287370816206566
875.322,0.04744645979465936
875.439,0.04805713144684147
875.556,0.043137300381410254
875.673,0.039681484273105465
875.791,0.03442897761927214
875.908,0.028340255677059126
876.025,0.02647454638395977
876.142,0.03226845718680052
876.259,0.03252332553775016
876.376,0.03155121076709973
876.493,0.03205808684915782
876.61,0.03453423532898327
876.728,0.03658119075158172
876.845,0.037774741980128666
876.962,0.03810577015973136
877.079,0.039842949851941596
877.196,0.0434404542367008
877.313,0.04155258125582485
877.43,0.04355182127187374
877.547,0.04418738916991358
877.664,0.04263775110623634
877.781,0.036970729596932775
877.898,0.03385392287128337
878.016,0.03003363409321614
