wavelength_nm,intensity
792.446,0.277094759240867
792.565,0.23993821753729494
792.684,0.20901115637064654
792.803,0.18431357574092178
792.922,0.1658454756481206
793.041,0.14662079859165017
793.16,0.13533199337814267
793.279,0.14759696035874137
793.398,0.15900340028836768
793.518,0.17815859719087324
793.637,0.20536179727392875
793.756,0.2300141814074605
793.875,0.2443807510649188
793.994,0.2423107928146175
794.113,0.22848011464170043
794.232,0.21643528280237662
794.351,0.20266858140489263
794.47,0.1979184778095685
794.589,0.1961174971850126
794.708,0.19434403345311607
794.827,0.1937152724558494
794.946,0.1846058051409642
795.066,0.1795660862504001
795.185,0.1799355005343522
795.304,0.1802829013041768
795.423,0.1802877167603922
795.542,0.18144961755293415
795.661,0.17986120492417193
795.78,0.18066744987909156
795.899,0.17388935129477157
796.018,0.16428870744591656
796.137,0.16115178168274807
796.256,0.15005009133932423
796.375,0.14514658106742412
796.494,0.14266868488344764
796.613,0.13988810288021813
796.732,0.13237874287347548
796.851,0.13308661493713786
796.97,0.12994418579543757
797.089,0.1314204670866128
797.208,0.1350987877128544
797.327,0.14539973647989046
797.446,0.15187446132264074
797.565,0.16369778217605654
797.684,0.16759004664272478
797.803,0.17775341094646396
797.922,0.17331975161672256
798.041,0.1670348933333219
798.16,0.16431347264931
798.279,0.15446036131030522
798.398,0.14603606462263838
798.517,0.1473541237810223
798.636,0.1446024345150851
798.755,0.1486467298136963
798.874,0.14864053851284798
798.993,0.15442734103911399
799.112,0.15621387529502379
799.231,0.15809327906365894
799.35,0.1553993752723064
799.469,0.15460000954055161
799.588,0.14717939151263532
799.707,0.13833958974581193
799.826,0.1389896763348896
799.945,0.13732834394058002
800.064,0.14361801768019605
800.183,0.15306319108552566
800.302,0.162959641530469
800.421,0.17149538163340627
800.54,0.17910242660908973
800.659,0.18848775077288515
800.778,0.20358076639655087
800.897,0.2046229687060246
801.016,0.20469382470462244
801.135,0.20079261724783998
801.254,0.19718584054251276
801.373,0.1919844599075749
801.492,0.19380263859004293
801.611,0.20000907372936444
801.729,0.2076849109366963
801.848,0.2147897726213462
801.967,0.20369908903498612
802.086,0.1937434772708253
802.205,0.17158549945686566
802.324,0.15449613327076242
802.443,0.12826976717494326
802.562,0.10662285102805219
802.681,0.09522507138219463
802.8,0.08701729465366041
802.919,0.07618268672188938
803.038,0.06893119982662826
803.157,0.057759963967458285
803.276,0.05399435339118927
803.394,0.048433176201183634
803.513,0.04286701606683492
803.632,0.041923758153371654
803.751,0.041677983425886196
803.87,0.04513361799093498
803.989,0.040406635009442235
804.108,0.0373112693958791
804.227,0.04245271343003465
804.346,0.04658817208824896
804.465,0.05063096159626973
804.583,0.055012981154610466
804.702,0.059942084509213484
804.821,0.06190014861711049
804.94,0.05679654749501012
805.059,0.055527827583893616
805.178,0.062005604874253
805.297,0.06347462851140578
805.416,0.07345908413685458
805.535,0.08056261189333908
805.653,0.09154115305833367
805.772,0.10023295231907581
805.891,0.10588814314049455
806.01,0.12319443242581954
806.129,0.1467956846897331
806.248,0.17503755197938026
806.367,0.20414138593158218
806.485,0.23526702357193136
806.604,0.2660156797828471
806.723,0.2836580400201037
806.842,0.2891812728078562
806.961,0.28638064556614873
807.08,0.26794354407075294
807.198,0.2579383064085054
807.317,0.2356742930665074
807.436,0.22220605446307767
807.555,0.21505294272497397
807.674,0.21575246422953864
807.793,0.23145075600041082
807.912,0.2556882274858029
808.03,0.2839713701144394
808.149,0.32358046576167365
808.268,0.3475888591156766
808.387,0.3663442776610055
808.506,0.3765715232488784
808.624,0.37204352307047933
808.743,0.3644473893605602
808.862,0.35431213438049747
808.981,0.33391651805007116
809.1,0.3155970512707945
809.219,0.29947480837036866
809.337,0.2885099190766257
809.456,0.28124330015630233
809.575,0.268688622389164
809.694,0.2629601977684995
809.812,0.26503487598371644
809.931,0.26964936339139356
810.05,0.2877753330171391
810.169,0.30760872583239895
810.288,0.3221753853926551
810.406,0.3328628510102562
810.525,0.32878131241525566
810.644,0.3224041770501469
810.763,0.3229200232962107
810.882,0.33342106196604426
811.0,0.3385115916167287
811.119,0.34908692589674284
811.238,0.36777080052115774
811.357,0.3886615299368543
811.475,0.40051502388089666
811.594,0.4112644025069817
811.713,0.42279938841849185
811.832,0.43235728559242614
811.95,0.42611635884598176
812.069,0.4225906614827011
812.188,0.4251104254366844
812.307,0.42290622684336987
812.425,0.42292539317693245
812.544,0.4228709518226311
812.663,0.42845884930813416
812.782,0.4330327492991395
812.9,0.43799945293285736
813.019,0.4462330996475591
813.138,0.45513265516461765
813.257,0.46711891811574124
813.375,0.48016320558961734
813.494,0.48987657320707656
813.613,0.49984240831468546
813.731,0.5033121929877329
813.85,0.5034655041730095
813.969,0.5008230990640937
814.088,0.49937836670817715
814.206,0.5040513275127557
814.325,0.5094252811578316
814.444,0.5132410907560707
814.562,0.51285575876754
814.681,0.5199288805343317
814.8,0.5295012240769112
814.918,0.5298017506379151
815.037,0.5287346876337483
815.156,0.5204189871807863
815.274,0.515582797804602
815.393,0.50501690345442
815.512,0.4944943482101761
815.631,0.4998022613128693
815.749,0.50631403846941
815.868,0.5073238129387092
815.987,0.5090001841326817
816.105,0.505112639630929
816.224,0.49638556163270925
816.343,0.4744063481297358
816.461,0.4484819001417248
816.58,0.4259936241245529
816.698,0.3995188382833543
816.817,0.3783933363751377
816.936,0.3692555687539766
817.055,0.3585335160379519
817.173,0.35139485066849396
817.292,0.339102959226252
817.41,0.3288129217249794
817.529,0.32880938662209647
817.648,0.3240990870298278
817.766,0.3216754412175529
817.885,0.3203517831893364
818.004,0.3222063262632774
818.122,0.32622507294487807
818.241,0.32936327906137886
818.359,0.33406968488435346
818.478,0.34184842950293703
818.597,0.323058374785388
818.715,0.33023062374293755
818.834,0.3369451818046097
818.953,0.44166683884461033
819.071,0.5547874644421769
819.19,0.7011549023622141
819.308,0.8189232836188891
819.427,0.8843516228290877
819.546,0.8501895361519607
819.664,0.7671988167685267
819.783,0.6290742132694671
819.901,0.5383675532304515
820.02,0.43046412886907603
820.138,0.37335805051166826
820.257,0.3289774632495345
820.376,0.3104966665330232
820.494,0.2860271742443765
820.613,0.27604051048467393
820.731,0.2757927629594398
820.85,0.277328110078533
820.969,0.29304153614036765
821.087,0.31741384039979026
821.206,0.3474057820625733
821.324,0.37274255340970686
821.443,0.3797138626736587
821.561,0.3764805322948823
821.68,0.3611287623889182
821.798,0.32948286449470665
821.917,0.30554651200133476
822.035,0.28474020604796646
822.154,0.2747287770848697
822.273,0.27142940616371025
822.391,0.26571405206705784
822.51,0.26916182322597637
822.628,0.26940869184629346
822.747,0.2716058202338438
822.865,0.2726864507017402
822.984,0.2751848890639108
823.102,0.2735158940328193
823.221,0.280473444850441
823.339,0.2798280782262781
823.458,0.28674228993796125
823.576,0.28496047564696625
823.695,0.29125830896307947
823.813,0.28582362717155274
823.932,0.2810768676965102
824.05,0.26924038082778035
824.169,0.2715069893692952
824.287,0.27301550751804426
824.406,0.2727546894687956
824.524,0.27896515665071475
824.643,0.2849616799922073
824.761,0.2740435694159835
824.88,0.2671140324307356
824.998,0.25889670486902927
825.117,0.26368110908887626
825.235,0.2614156854093921
825.354,0.2652466292985919
825.472,0.2748451138891961
825.591,0.27591955305624327
825.709,0.27243375518731583
825.828,0.2723978877355572
825.946,0.27079493324684734
826.064,0.26923256617481006
826.183,0.263055616203796
826.301,0.26387277242447815
826.42,0.25768275192945095
826.538,0.2601619284667591
826.657,0.26375485123445536
826.775,0.2627036104435659
826.894,0.26194336079254926
827.012,0.24875166696034468
827.13,0.23636277847147713
827.249,0.22488194744036893
827.367,0.20769824040560592
827.486,0.21513802476708244
827.604,0.22281583025006269
827.723,0.23113477933200632
827.841,0.24562576743744724
827.959,0.2528516079584973
828.078,0.2631641559136124
828.196,0.27581839143404
828.315,0.28428799550329353
828.433,0.3021209102222148
828.552,0.305006648848565
828.67,0.29418828700823096
828.788,0.268309241893106
828.907,0.23790917131404613
829.025,0.20249306341501672
829.143,0.16613174058089164
829.262,0.1368532257464516
829.38,0.11426538819450141
829.499,0.10252756696770227
829.617,0.10227897124085278
829.735,0.10010481153787978
829.854,0.10515969354003485
829.972,0.11121446286378751
830.091,0.11983196215402844
830.209,0.13275104133370208
830.327,0.14902549920624752
830.446,0.1715327729420152
830.564,0.19461473436221693
830.682,0.2039409235554215
830.801,0.20726795569650247
830.919,0.2066951562254338
831.037,0.1952519392449389
831.156,0.17710666645937562
831.274,0.16653006493201533
831.392,0.1581116303928549
831.511,0.15770030926713127
831.629,0.16175582242372882
831.747,0.16680209364830645
831.866,0.17515282708339644
831.984,0.17120776796930479
832.102,0.1669201235416038
832.221,0.16601017768784088
832.339,0.1617080868914938
832.457,0.16300499582901254
832.576,0.1654651814037062
832.694,0.16117398809227343
832.812,0.15946117447157587
832.93,0.1497084514741076
833.049,0.1425042118800401
833.167,0.12889681718383061
833.285,0.12696430543335271
833.404,0.1285106378521145
833.522,0.13557855163129579
833.64,0.14087817002577008
833.759,0.1529808299536149
833.877,0.1685570683150037
833.995,0.18534249388260465
834.113,0.20218639462562243
834.232,0.23769362781485937
834.35,0.2574089163068824
834.468,0.27517463295398886
834.586,0.2756432308754139
834.705,0.27220580588384125
834.823,0.2605394541424833
834.941,0.2406262896711117
835.059,0.2229550640291626
835.178,0.21611035980404358
835.296,0.208502061807627
835.414,0.2078156381596755
835.532,0.2108955891944756
835.651,0.21974583261994596
835.769,0.23140142325203925
835.887,0.2393057734923435
836.005,0.2520187007248729
836.124,0.26871538609216294
836.242,0.28613507781407793
836.36,0.30481435529747564
836.478,0.33333642528513097
836.596,0.34795558525663817
836.715,0.36455596149962033
836.833,0.36996177788645307
836.951,0.38443303455991595
837.069,0.3873327499477962
837.188,0.4023392101834839
837.306,0.4216637587997436
837.424,0.4407764273425262
837.542,0.446114139420027
837.66,0.45068206642538183
837.779,0.4516562872494227
837.897,0.45050964357174234
838.015,0.43884260390806745
838.133,0.44027773268415266
838.251,0.43958236604608575
838.369,0.4433213466600767
838.487,0.4440809357213741
838.606,0.44089116276373486
838.724,0.4417959034338102
838.842,0.4471790183841985
838.96,0.4401864108610341
839.078,0.4390837942116085
839.196,0.44605050633454396
839.315,0.450930062149266
839.433,0.45392333497218823
839.551,0.45272647296540447
839.669,0.4571843324001217
839.787,0.4678217980038174
839.905,0.46006009333082387
840.023,0.4553128642486645
840.142,0.45754460706723826
840.26,0.44573998294026596
840.378,0.4349404133176772
840.496,0.4240342157360334
840.614,0.4259914775503295
840.732,0.42655569667374493
840.85,0.4177813703508861
840.968,0.4193513319010018
841.087,0.42979686717839805
841.205,0.43665901510922767
841.323,0.4407722254633859
841.441,0.4530503857918964
841.559,0.46844689798103045
841.677,0.4826567441742291
841.795,0.49422840828371056
841.913,0.5157818252053795
842.031,0.5364815305322914
842.149,0.551524450650753
842.267,0.5543732597872135
842.385,0.5654523715180924
842.504,0.5694919741843874
842.622,0.5751117344116465
842.74,0.5774666153248713
842.858,0.5848639668179261
842.976,0.5916229264012832
843.094,0.5874150284152475
843.212,0.5818491717764718
843.33,0.5816133372458165
843.448,0.5789223079676287
843.566,0.5735738347808619
843.684,0.5685535005390581
843.802,0.5800618757954228
843.92,0.5821807993540931
844.038,0.5876774214867011
844.156,0.6027953251376592
844.274,0.612512350681899
844.392,0.6162657776645366
844.51,0.6188332265735551
844.628,0.6186544895951682
844.746,0.6157075532152487
844.864,0.5907835625906046
844.982,0.5640723497877342
845.1,0.5360196884677197
845.218,0.5028351266667321
845.336,0.4564135636519534
845.454,0.42755603322165203
845.572,0.40387649406752796
845.69,0.38412223965126346
845.808,0.3630795067362239
845.926,0.344253259524897
846.044,0.33105972024094366
846.162,0.31849562987657354
846.28,0.29023040056076566
846.398,0.26827341888711875
846.516,0.2515707878667789
846.634,0.23217494097740293
846.752,0.213979518530292
846.87,0.19716406825004856
846.988,0.19327261452959577
847.106,0.1856911455035211
847.224,0.17412935795426815
847.342,0.16644401265840417
847.46,0.1676954661759878
847.578,0.1564514532602064
847.696,0.15293742442514965
847.814,0.1553874717069722
847.932,0.15898489380365627
848.05,0.16155131363233644
848.168,0.17132501596178829
848.285,0.18889954699313258
848.403,0.1993421883798745
848.521,0.20522110764231555
848.639,0.21521517820196562
848.757,0.23015678606177087
848.875,0.2311308192076786
848.993,0.23875568530935654
849.111,0.24952917185358328
849.229,0.2678003237251726
849.347,0.27362214543534535
849.465,0.2812628337503026
849.582,0.28268745601350753
849.7,0.2866078604409176
849.818,0.286625681566912
849.936,0.29023170549568844
850.054,0.29774031272588025
850.172,0.31367046495447304
850.29,0.31853538672241566
850.408,0.3221558570198382
850.525,0.3238315709285595
850.643,0.3304527583704866
850.761,0.33931863633110215
850.879,0.3396769790037564
850.997,0.3450887990133045
851.115,0.34963934028261434
851.233,0.3466867128460297
851.35,0.3465762364599999
851.468,0.35649841913757707
851.586,0.3817117390659673
851.704,0.4183039820313244
851.822,0.45301819707267926
851.94,0.5052861258637644
852.057,0.5577473608257815
852.175,0.6053002700596832
852.293,0.6550999335792229
852.411,0.7040163048443967
852.529,0.7503773886649895
852.647,0.7900972704422426
852.764,0.8150550272300587
852.882,0.8394108519909511
853.0,0.8595063738458559
853.118,0.8619222921671141
853.236,0.8589717284974779
853.353,0.8487319399623743
853.471,0.8282634345034653
853.589,0.7971562104201266
853.707,0.7614165174575828
853.824,0.7321260962120792
853.942,0.7056699149104911
854.06,0.6706092012743172
854.178,0.6419564840161947
854.296,0.615000871112839
854.413,0.5809534670488465
854.531,0.5403838715022662
854.649,0.4956894937460461
854.767,0.45031200912955693
854.884,0.4039879434055854
855.002,0.35701035148095384
855.12,0.31579342103456187
855.238,0.27628597754463347
855.355,0.24419984000493777
855.473,0.21373307159824595
855.591,0.17918279632090314
855.708,0.15160874125502777
855.826,0.12810395386052797
855.944,0.10293019221877694
856.062,0.08348851368380841
856.179,0.06758073724541683
856.297,0.05435736332385832
856.415,0.04561547551989943
856.532,0.03726532317010967
856.65,0.030380511856338433
856.768,0.030970660256934998
856.886,0.030192408191297756
857.003,0.03581990887625374
857.121,0.02971241027799705
857.239,0.02718767576583323
857.356,0.02980854566424411
857.474,0.02723738732873089
857.592,0.025299135479720816
857.709,0.03439878457173697
857.827,0.04044661400453291
857.945,0.04536824000862648
858.062,0.04558884058575671
858.18,0.05133336505536167
858.298,0.05929301471720502
858.415,0.05952857846357847
858.533,0.060739959769389625
858.651,0.06388709588943062
858.768,0.06300757369514938
858.886,0.06203115868333024
859.003,0.05989835250921793
859.121,0.051543180541247374
859.239,0.052857707432819756
859.356,0.04468713004701487
859.474,0.039857481952289664
859.592,0.037167811274409976
859.709,0.03622760251795096
859.827,0.03494326344276406
859.944,0.03434478483583141
860.062,0.03425548135550024
860.18,0.04243563008556653
860.297,0.04648434562953421
860.415,0.054378650521860486
860.532,0.06313414728687997
860.65,0.07445868650597606
860.768,0.0764971735817285
860.885,0.08604330770429211
861.003,0.09137145896878254
861.12,0.10169092149528841
861.238,0.10618163983097731
861.356,0.10819340669342636
861.473,0.10875090577882757
861.591,0.10919764937127485
861.708,0.10043517691294664
861.826,0.10142881874699892
861.943,0.0956903229912053
862.061,0.09274098014769834
862.178,0.08748507828628564
862.296,0.08514295948310774
862.414,0.0847016726529746
862.531,0.08471980902194898
862.649,0.08210727698456104
862.766,0.08554064226714089
862.884,0.08503082049118574
863.001,0.08892633514912043
863.119,0.09223860514295983
863.236,0.09526963507080168
863.354,0.10619653936985783
863.471,0.11498071261915414
863.589,0.12295795299121434
863.706,0.1306882292516566
863.824,0.14051322896579355
863.941,0.14812724635474997
864.059,0.1489672926932854
864.176,0.14739892300180915
864.294,0.14799131730641005
864.411,0.14221355096036625
864.529,0.13076317719259284
864.646,0.12739520272119348
864.764,0.12831092051454185
864.881,0.1326359813083865
864.999,0.138588666303033
865.116,0.15470196391215268
865.233,0.1809118973603127
865.351,0.20404544220915494
865.468,0.22144721831704992
865.586,0.24193226224742764
865.703,0.2521617602836572
865.821,0.24955187620502362
865.938,0.23927097037527345
866.056,0.23668378773308382
866.173,0.237003764800357
866.29,0.24005135385249043
866.408,0.23629539119459408
866.525,0.24023865510279013
866.643,0.24182922468860973
866.76,0.24051882586581486
866.878,0.23890849291303262
866.995,0.23605783602362918
867.112,0.2359877611374554
867.23,0.23566109122723294
867.347,0.2309131445889659
867.465,0.2347174481892318
867.582,0.24036331983072617
867.699,0.24868039382712898
867.817,0.25337762059419133
867.934,0.25315964240997335
868.051,0.26832979852319294
868.169,0.2789617311145657
868.286,0.2980282792283524
868.404,0.3156501904775223
868.521,0.3434003819922906
868.638,0.36164142332629645
868.756,0.3843271307471074
868.873,0.40651065487688487
868.99,0.4392833672243051
869.108,0.4689425431673175
869.225,0.5011009408861172
869.342,0.528875897604279
869.46,0.5693478365177917
869.577,0.5977735677473477
869.694,0.6309026238547066
869.812,0.6530318021214816
869.929,0.6651572140619415
870.046,0.6696831481721993
870.164,0.6602016080742037
870.281,0.6366850768752952
870.398,0.6223296071650084
870.516,0.6046906842381419
870.633,0.5867160552208311
870.75,0.5646097647707158
870.867,0.5458295787208021
870.985,0.5335729599981092
871.102,0.5181360764063094
871.219,0.5016164030883632
871.337,0.4846894797590584
871.454,0.4699006189893867
871.571,0.45051918883486575
871.688,0.42217344297423776
871.806,0.39385521400626916
871.923,0.36784221272083945
872.04,0.3477240177653639
872.157,0.3266110871402519
872.275,0.30259168472799364
872.392,0.294081490940874
872.509,0.2828643228383885
872.626,0.26193575539409414
872.744,0.24132569598233203
872.861,0.2185369865942642
872.978,0.1910800363665338
873.095,0.1692069515817065
873.213,0.15189135214358762
873.33,0.14406013768283776
873.447,0.1331091955168316
873.564,0.11343510842073418
873.681,0.10141022286633931
873.799,0.08858719799420783
873.916,0.07315501599286628
874.033,0.0697812327450634
874.15,0.07102505222458891
874.267,0.06540674624057569
874.385,0.05921245767590264
874.502,0.05390071576575491
874.619,0.054352327858523605
874.736,0.052648412370845846
874.853,0.05521514407169542
874.97,0.052322869912941786
875.088,0.05673642914938616
875.205,0.04884138199176792
875.322,0.049622865265245744
875.439,0.05085641516724863
875.556,0.049368508684117504
875.673,0.04692724918069123
875.791,0.04640163614783133
875.908,0.046112424098545296
876.025,0.051264298793094076
876.142,0.047261239404573
876.259,0.054711338000953055
876.376,0.051487277256805575
876.493,0.04981786494002137
876.61,0.04777250488557028
876.728,0.04566006368058871
876.845,0.05451027924456967
876.962,0.05575232539523986
877.079,0.05316108921384819
877.196,0.05448715291933512
877.313,0.047083284915464506
877.43,0.03921133737672758
877.547,0.040381629445207554
877.664,0.03934499361473915
877.781,0.042161418593810895
877.898,0.045467067015765666
878.016,0.047573305910727906
878.133,0.04641596657579038
878.25,0.046168413559161445
