wavelength_nm,intensity
792.446,0.27330767317571664
792.565,0.22463973202142373
792.684,0.18519432600429453
792.803,0.15497145512432897
792.922,0.13397111938152706
793.041,0.11967045255259012
793.16,0.11443782446021059
793.279,0.12220089359941379
793.398,0.13772103201760233
793.518,0.15862529499866793
793.637,0.18562691592599195
793.756,0.20661517695010562
793.875,0.22004961396010908
793.994,0.22398702222798822
794.113,0.2126540362592413
794.232,0.19473845364912779
794.351,0.1835502143081334
794.47,0.17200723323176637
794.589,0.1654786353323592
794.708,0.16095324076314346
794.827,0.16047925180594358
794.946,0.15202919867181142
795.066,0.1514704616890362
795.185,0.15008749390885157
795.304,0.15182445344188167
795.423,0.14836253409625694
795.542,0.1476350510448583
795.661,0.14631883170959584
795.78,0.144464124919793
795.899,0.1376775330310238
796.018,0.13377987383708712
796.137,0.13264065037824746
796.256,0.12600630494250303
796.375,0.12383360556116099
796.494,0.12271163170044726
796.613,0.12111075658212483
796.732,0.11131827807300801
796.851,0.1044585313659421
796.97,0.09773972034537266
797.089,0.0905620423068709
797.208,0.09909809826872168
797.327,0.11354838881582795
797.446,0.1309755491411866
797.565,0.14557632568538156
797.684,0.1473925808994625
797.803,0.15259350725886506
797.922,0.15183132254438061
798.041,0.1373579572673504
798.16,0.13860347577822058
798.279,0.1279557713725143
798.398,0.12129272413390163
798.517,0.1223267475720971
798.636,0.11559095202834438
798.755,0.11216632934224616
798.874,0.1110704024031507
798.993,0.1101034724587362
799.112,0.1201027870272603
799.231,0.12433848587413682
799.35,0.1252345125273247
799.469,0.13629505237185852
799.588,0.14118848589510286
799.707,0.14145227727784873
799.826,0.14072759168972532
799.945,0.13380280054911492
800.064,0.13569255405086328
800.183,0.13947226352119368
800.302,0.1358616451683468
800.421,0.1489838869801951
800.54,0.1555610312770373
800.659,0.16457336883974671
800.778,0.16779959120499188
800.897,0.1706463224114662
801.016,0.17238682939029834
801.135,0.17402533874542914
801.254,0.1707304630365392
801.373,0.17624488209231726
801.492,0.1765124233876986
801.611,0.1799733902839617
801.729,0.18614704398116183
801.848,0.19172596153428062
801.967,0.185206160958366
802.086,0.17325648688541428
802.205,0.15782164400849405
802.324,0.13812769374539005
802.443,0.11140293289483734
802.562,0.08988042110338845
802.681,0.07612086512645717
802.8,0.06230835880048251
802.919,0.053094542317341176
803.038,0.04070856741088702
803.157,0.033996493156718384
803.276,0.030973522870793673
803.394,0.020523445294409547
803.513,0.0225940015121022
803.632,0.02272085843767229
803.751,0.026643007586201382
803.87,0.030677202635920987
803.989,0.03222705900903868
804.108,0.03283979372489148
804.227,0.04158017571509566
804.346,0.04388436625380293
804.465,0.04709623387965073
804.583,0.04336278500134709
804.702,0.04128501450436045
804.821,0.03923495429442132
804.94,0.04213794436660144
805.059,0.040200570100592026
805.178,0.050967262837587575
805.297,0.05584317110241205
805.416,0.06384904118413154
805.535,0.06952255449029224
805.653,0.07339014927149726
805.772,0.08033254168832152
805.891,0.0885012766201828
806.01,0.0963327395013611
806.129,0.11967403502891662
806.248,0.1498176330083623
806.367,0.18361661271587398
806.485,0.21391659860703416
806.604,0.24369459665925255
806.723,0.26319483415851586
806.842,0.2638817599625894
806.961,0.25425117613976533
807.08,0.246864540038369
807.198,0.24899143229469584
807.317,0.22886859291613335
807.436,0.22595410262452056
807.555,0.2238870925886608
807.674,0.22393953317471077
807.793,0.2239027258400222
807.912,0.23327444930924654
808.03,0.2614962336174945
808.149,0.2978253290449374
808.268,0.31967526180196626
808.387,0.35098997405244947
808.506,0.3632026313347648
808.624,0.3655597682269469
808.743,0.34643965548727135
808.862,0.32296964408974843
808.981,0.2990001443291005
809.1,0.2782465696451507
809.219,0.26639903747187993
809.337,0.2635745450835338
809.456,0.2574756289813663
809.575,0.25413589859682284
809.694,0.25061242249311166
809.812,0.2533145513478126
809.931,0.25663016590977544
810.05,0.26935881117081456
810.169,0.29311369954696975
810.288,0.31127371827010064
810.406,0.3168707796798517
810.525,0.31657747832085575
810.644,0.31425922413837903
810.763,0.3135054335076729
810.882,0.31327738062854454
811.0,0.31441579591400204
811.119,0.3253977318691573
811.238,0.34913987054234985
811.357,0.36762838161240075
811.475,0.378131828715193
811.594,0.3890410163652087
811.713,0.3989272278481031
811.832,0.40338131588637877
811.95,0.4022037851277964
812.069,0.39927054527300354
812.188,0.4021819192527976
812.307,0.39697773230559763
812.425,0.39856838705496594
812.544,0.4068203866110587
812.663,0.4150963856080222
812.782,0.42043545302841145
812.9,0.4278444722239144
813.019,0.43754168810995053
813.138,0.44374998527938225
813.257,0.4535784481076811
813.375,0.46585635386986435
813.494,0.4773902769650504
813.613,0.4792419256338898
813.731,0.4783051392665437
813.85,0.4783658296603935
813.969,0.4821479333542844
814.088,0.4841143293497877
814.206,0.48830367355595633
814.325,0.4930795040984072
814.444,0.49817482719745165
814.562,0.49948348851658725
814.681,0.49688624083398664
814.8,0.4921620427042041
814.918,0.48060325380391067
815.037,0.4647973138519983
815.156,0.455617469528031
815.274,0.4475565991346686
815.393,0.44821952549787186
815.512,0.45707376102331787
815.631,0.4609143633543312
815.749,0.4662804301457
815.868,0.4758613987400174
815.987,0.4818177017803045
816.105,0.4856298047752836
816.224,0.4734657799755274
816.343,0.4604760244133075
816.461,0.4380822379423376
816.58,0.40397822429143165
816.698,0.37311338517556747
816.817,0.3552869922953374
816.936,0.3490155802119097
817.055,0.3394457449737901
817.173,0.32389404909860275
817.292,0.31135728298282
817.41,0.30768981023388253
817.529,0.3017168911962861
817.648,0.3002536170948339
817.766,0.3045044598682333
817.885,0.3184900758448843
818.004,0.3227586375429009
818.122,0.32325148964551903
818.241,0.3239756313703066
818.359,0.33105569921577005
818.478,0.32945572071435747
818.597,0.30684640698558796
818.715,0.3124351727669088
818.834,0.32252537120773284
818.953,0.4263909214202958
819.071,0.555819472908547
819.19,0.6934672517464536
819.308,0.797807336546503
819.427,0.8354171788162008
819.546,0.7828728895336481
819.664,0.6872960014924874
819.783,0.5536710000304654
819.901,0.48550567027054103
820.02,0.4164671246501124
820.138,0.3658263318857451
820.257,0.32759519987321706
820.376,0.2941879199900943
820.494,0.2654260318805417
820.613,0.25198928673210164
820.731,0.2508912541214038
820.85,0.26521211228772046
820.969,0.2887990045777792
821.087,0.31981747373001185
821.206,0.35890725484013297
821.324,0.37737176646931264
821.443,0.3773649584357125
821.561,0.3663566567103945
821.68,0.3371012800979341
821.798,0.3001743322145908
821.917,0.26521083858749644
822.035,0.25324480917492487
822.154,0.24897435047410693
822.273,0.24175271052869762
822.391,0.2421868922210996
822.51,0.23964589322803936
822.628,0.24152304130280314
822.747,0.24069725234948386
822.865,0.24099118730929678
822.984,0.25118864154098464
823.102,0.24632644662619374
823.221,0.2442301872717721
823.339,0.2522091931879575
823.458,0.2553890609124937
823.576,0.2598813980596564
823.695,0.26708042214753835
823.813,0.27189675174645805
823.932,0.27073197069083754
824.05,0.25673423861204003
824.169,0.25421498911226914
824.287,0.25494766385050294
824.406,0.2504402106710852
824.524,0.24728572597076365
824.643,0.24497872152619504
824.761,0.24475216861212107
824.88,0.23891724635953282
824.998,0.24124663389820755
825.117,0.25451751652642285
825.235,0.25820437243935696
825.354,0.2621957212583404
825.472,0.27001498089622966
825.591,0.2698829257805848
825.709,0.2660174576444633
825.828,0.25612287997205985
825.946,0.2503044573350701
826.064,0.24946441871373415
826.183,0.24175679009068976
826.301,0.23881680039315148
826.42,0.23855124838766217
826.538,0.2375124643966141
826.657,0.24478273682458174
826.775,0.25433595606539194
826.894,0.25079373039849984
827.012,0.24050766184688968
827.13,0.22724116273212672
827.249,0.21312868332666512
827.367,0.20006692944183185
827.486,0.19652545375746672
827.604,0.21319825712912918
827.723,0.23317473353317392
827.841,0.23478788775835774
827.959,0.24041044857403304
828.078,0.24928643359276734
828.196,0.2654679984091035
828.315,0.27467097580970357
828.433,0.2802440377785826
828.552,0.27893301013015465
828.67,0.26191509841426164
828.788,0.23234922903553326
828.907,0.20243975485789845
829.025,0.17473808136211536
829.143,0.1576992200976386
829.262,0.13442676387730357
829.38,0.11459212877231978
829.499,0.09960371210836624
829.617,0.09162725608043024
829.735,0.08752883104355749
829.854,0.08423076079085352
829.972,0.09440445204395206
830.091,0.11212083307107429
830.209,0.12367989264808028
830.327,0.14688657752750212
830.446,0.17064114374967893
830.564,0.19285420285285665
830.682,0.2046068459743846
830.801,0.21797886982004705
830.919,0.2244285549395145
831.037,0.22099272036776008
831.156,0.2109517896788224
831.274,0.1966869573966094
831.392,0.18059591766062746
831.511,0.1713792177690988
831.629,0.1668341590395928
831.747,0.17297260141026555
831.866,0.17716408914028792
831.984,0.175855205015715
832.102,0.18220739240664388
832.221,0.1684046372657651
832.339,0.16137241578336153
832.457,0.16220927628659843
832.576,0.15959727680865546
832.694,0.15907005321329537
832.812,0.15602007794892442
832.93,0.1543374162202184
833.049,0.14661315973926342
833.167,0.13346376448963962
833.285,0.12487417489300709
833.404,0.12750419186439624
833.522,0.13554534791835884
833.64,0.1434241112149372
833.759,0.15045552714103316
833.877,0.17094318192821445
833.995,0.18009627224490538
834.113,0.19916038165874345
834.232,0.21701101934354755
834.35,0.23865281870342386
834.468,0.24904863006771022
834.586,0.25299009180278387
834.705,0.2445718414893534
834.823,0.24447314735031972
834.941,0.22904031045984702
835.059,0.21866385576785835
835.178,0.2112558319185871
835.296,0.20361756343346074
835.414,0.1928968667614803
835.532,0.19773455761657632
835.651,0.2029847388616404
835.769,0.2197614015674727
835.887,0.23076694872638506
836.005,0.2551769335942123
836.124,0.2815053737666555
836.242,0.2979092951564619
836.36,0.30904758922269115
836.478,0.3240850424479117
836.596,0.33357562490184983
836.715,0.34290571109496404
836.833,0.3519028050459948
836.951,0.366860760123331
837.069,0.3786800383242722
837.188,0.39123279943682976
837.306,0.40403530473094984
837.424,0.41313289634062744
837.542,0.41446291891593856
837.66,0.4233460155228327
837.779,0.42513652736985397
837.897,0.4244738463703547
838.015,0.4217314638228878
838.133,0.41967306534024107
838.251,0.4209130900122863
838.369,0.4243558133667622
838.487,0.4255395893492665
838.606,0.4355656593276366
838.724,0.44127632984441134
838.842,0.4482507209195434
838.96,0.44707430188890196
839.078,0.4369588411163843
839.196,0.4305032950766762
839.315,0.4377409300188608
839.433,0.43462205624273254
839.551,0.4365325652941084
839.669,0.439063309895491
839.787,0.4438035030220493
839.905,0.43934741039989644
840.023,0.43568929918670063
840.142,0.43140720251086195
840.26,0.4268078632260114
840.378,0.42021057048865995
840.496,0.41011610922690467
840.614,0.4078312160210398
840.732,0.41313389604300976
840.85,0.41222147086194855
840.968,0.41334374827722176
841.087,0.41518225900598543
841.205,0.4119793871868095
841.323,0.4191772730550521
841.441,0.4193328229927452
841.559,0.431064353238003
841.677,0.4452025774130939
841.795,0.4595702962415126
841.913,0.47012285395398823
842.031,0.4890242171594219
842.149,0.5051371453286702
842.267,0.530350361483146
842.385,0.5455775602877531
842.504,0.5555346318736203
842.622,0.5650229643799778
842.74,0.5663192377415655
842.858,0.5606489234078522
842.976,0.5571070594863752
843.094,0.5544696744927196
843.212,0.559487361154348
843.33,0.5563054888459342
843.448,0.5567422822313333
843.566,0.5581675525876018
843.684,0.5661769195502914
843.802,0.5769259726848978
843.92,0.5852945812781234
844.038,0.5980160884593055
844.156,0.6065894422824608
844.274,0.6132675902593439
844.392,0.6076872738288962
844.51,0.5951111203845865
844.628,0.5949389279578867
844.746,0.5868551698515951
844.864,0.5648382363547024
844.982,0.5371004361402132
845.1,0.5054709765920053
845.218,0.47895189798424104
845.336,0.4369119309757608
845.454,0.4027602801885287
845.572,0.37937012868430564
845.69,0.3617555926221655
845.808,0.3353122622496495
845.926,0.31801346883146697
846.044,0.2971140093001249
846.162,0.2929541597762232
846.28,0.2731196754335268
846.398,0.2613790025245355
846.516,0.24248574625349434
846.634,0.22638242498369304
846.752,0.21112133409195433
846.87,0.20621600193600106
846.988,0.18621788372311043
847.106,0.181850243146083
847.224,0.15986738238236475
847.342,0.14894125653297263
847.46,0.13435210082538224
847.578,0.12554685666506066
847.696,0.12595912475780546
847.814,0.13425113617481216
847.932,0.13412598970298556
848.05,0.14082346560660883
848.168,0.14429934457651816
848.285,0.1585352228643821
848.403,0.16830495520268018
848.521,0.18065237748701635
848.639,0.19388702910104794
848.757,0.21569848089631086
848.875,0.22660818667597554
848.993,0.24274827060043802
849.111,0.2562356663261408
849.229,0.26844659179052355
849.347,0.2758733787138013
849.465,0.2825231837388843
849.582,0.2798597057410108
849.7,0.2813098819049118
849.818,0.284033528400024
849.936,0.2940830042209729
850.054,0.29575967510809276
850.172,0.30995130442685026
850.29,0.32295796135260785
850.408,0.33093373548580673
850.525,0.32295888123019567
850.643,0.32403481611301616
850.761,0.32786168690566153
850.879,0.3304630862488376
850.997,0.33072379012457553
851.115,0.33956579407670817
851.233,0.34227069100863994
851.35,0.35050745906131
851.468,0.35411683492106316
851.586,0.3735020932407853
851.704,0.3950705506972306
851.822,0.42847898231082027
851.94,0.47353839248469587
852.057,0.5240794249499864
852.175,0.5759606761914102
852.293,0.6309543549207768
852.411,0.6844878176696556
852.529,0.7328636505788767
852.647,0.7695990046831926
852.764,0.7922669365245358
852.882,0.8230489293278187
853.0,0.8397200008815502
853.118,0.8503154639823125
853.236,0.8480967256230783
853.353,0.8401968696201898
853.471,0.8213405188772165
853.589,0.7886987393015026
853.707,0.7470856687352421
853.824,0.7203965004780339
853.942,0.6860162614042354
854.06,0.6617990355567283
854.178,0.6305109744426376
854.296,0.5978294457929814
854.413,0.5685040889526127
854.531,0.5285154805403001
854.649,0.47744963020102094
854.767,0.4311206695036319
854.884,0.38522594868950033
855.002,0.33830975167330185
855.12,0.29408599192980533
855.238,0.2499004812951967
855.355,0.22121635951559637
855.473,0.18712636367982988
855.591,0.15725126964701214
855.708,0.1308947643309632
855.826,0.10813093973753662
855.944,0.08451761940794279
856.062,0.07306895630676352
856.179,0.056218087961237964
856.297,0.05017505135381879
856.415,0.03887411491681212
856.532,0.03320435747212031
856.65,0.02054689365143479
856.768,0.017323163262795982
856.886,0.018730199599992652
857.003,0.02334656018732268
857.121,0.025834524729691614
857.239,0.0318123035606392
857.356,0.031375972732444135
857.474,0.025415342247443413
857.592,0.02301526770579171
857.709,0.025094479474445232
857.827,0.026699856414382758
857.945,0.02335702424241362
858.062,0.029735375479157913
858.18,0.0350788185428648
858.298,0.04062767975059967
858.415,0.03843223891732921
858.533,0.03838120648455837
858.651,0.04216946199249658
858.768,0.036564969941721995
858.886,0.03485204237564961
859.003,0.03623704308300195
859.121,0.03174485851425536
859.239,0.034088643481848604
859.356,0.027359753328233847
859.474,0.026109603400471863
859.592,0.03195911634466987
859.709,0.026477786986214273
859.827,0.02855468001374118
859.944,0.02583884655531505
860.062,0.02641843792747485
860.18,0.03309149887600117
860.297,0.03564971799861342
860.415,0.044308816866139564
860.532,0.052734180671706335
860.65,0.05666419707258916
860.768,0.06671813705161474
860.885,0.07139420048666587
861.003,0.08474324233522859
861.12,0.0945761380353386
861.238,0.09421369639210538
861.356,0.09373041592874712
861.473,0.09651255938888331
861.591,0.10199763987710261
861.708,0.10406654995385738
861.826,0.1009560806976649
861.943,0.09880633905883492
862.061,0.09252269372999539
862.178,0.07808898827790971
862.296,0.07513826530001376
862.414,0.08289279291558563
862.531,0.09191329103709647
862.649,0.09099679693590917
862.766,0.09007186885165475
862.884,0.08933210195339258
863.001,0.08407321600238021
863.119,0.07405118602759525
863.236,0.0750898830028825
863.354,0.0819309298824015
863.471,0.09010499535985728
863.589,0.10348841312156828
863.706,0.12499855346996769
863.824,0.145977725674156
863.941,0.1559321748054141
864.059,0.1544924591155914
864.176,0.151541848348328
864.294,0.14745151572219461
864.411,0.14280463510680172
864.529,0.1373852267728278
864.646,0.13197406824665314
864.764,0.13253202065458314
864.881,0.13832035120731082
864.999,0.14147399314193188
865.116,0.1526719476634617
865.233,0.172139959512592
865.351,0.1893175247236076
865.468,0.20046298046823255
865.586,0.2052748337705263
865.703,0.21860573859945598
865.821,0.22017241750648997
865.938,0.2196383953547944
866.056,0.21644043526643092
866.173,0.22055180488830525
866.29,0.22298321364921786
866.408,0.23066000020547273
866.525,0.23573509737481863
866.643,0.23621580158244504
866.76,0.23147512743560028
866.878,0.22891240254778816
866.995,0.22224352332347355
867.112,0.2191543107015564
867.23,0.2167588319173131
867.347,0.22595583305623324
867.465,0.23140067161149636
867.582,0.23544304284086734
867.699,0.2441263059486452
867.817,0.24752744211724728
867.934,0.25365701471985785
868.051,0.2654992042322656
868.169,0.27753788916680355
868.286,0.29314124105319495
868.404,0.30462343895253935
868.521,0.32391520490777426
868.638,0.3419619998678321
868.756,0.3560563869094664
868.873,0.3795713044754493
868.99,0.4120485132416522
869.108,0.44362199306256095
869.225,0.47918013005056337
869.342,0.5063707119824274
869.46,0.53925741120849
869.577,0.5632815669104522
869.694,0.5891236802583839
869.812,0.602537833147835
869.929,0.6140860295095749
870.046,0.6248857433091544
870.164,0.6321012906111729
870.281,0.6200655364221082
870.398,0.6073547979585499
870.516,0.5946740587960804
870.633,0.588525667445654
870.75,0.5652739245620882
870.867,0.5477415484310646
870.985,0.5345403213947078
871.102,0.5138197695404929
871.219,0.48432592208291636
871.337,0.4608004355769172
871.454,0.44473877518176236
871.571,0.4298118383502838
871.688,0.4063223510055908
871.806,0.3859940400131091
871.923,0.3682824180580807
872.04,0.3409785195799715
872.157,0.31348787545258566
872.275,0.29444203458164153
872.392,0.2766666641117999
872.509,0.258910793187666
872.626,0.23660402828839106
872.744,0.21709619818068276
872.861,0.20074429454749537
872.978,0.18041598355501348
873.095,0.16819873359436247
873.213,0.15383128372818583
873.33,0.13801861753206568
873.447,0.12701858921308462
873.564,0.1111054253583176
873.681,0.0971579657073813
873.799,0.0825477662929204
873.916,0.07099483245405058
874.033,0.0684216276447023
874.15,0.05986472114017306
874.267,0.05296737814091572
874.385,0.049115037870319705
874.502,0.04111248534778404
874.619,0.03988676768096151
874.736,0.037518100637133546
874.853,0.04249232135987367
874.97,0.04582491805088833
875.088,0.05286384462620273
875.205,0.05366047914113364
875.322,0.050374792970718146
875.439,0.04587848966780582
875.556,0.04228484288674791
875.673,0.04281014941800983
875.791,0.04018199787035734
875.908,0.04580089103658228
876.025,0.0516805481486248
876.142,0.049144636936145666
876.259,0.046236964669832986
876.376,0.04695267944492383
876.493,0.04047449480925272
876.61,0.04105406878410839
876.728,0.036002210012559786
876.845,0.04421817356322169
876.962,0.04263636479994466
877.079,0.03875133875378799
877.196,0.04082170240105523
877.313,0.0449386426101423
877.43,0.04271399801989116
877.547,0.0422110189605764
877.664,0.039027365081825416
877.781,0.039058711373585374
877.898,0.03738657949776813
878.016,0.03019665630041409
878.133,0.03167604315200538
