wavelength_nm,intensity
792.446,250.80514720534293
792.565,207.51363205382773
792.684,170.24159742179305
792.803,138.9890433092389
792.922,113.75596971616517
793.041,90.10835066854617
793.16,73.787138547334
793.279,74.96376192395743
793.398,92.84428140447694
793.518,113.97848053867608
793.637,147.4373549975505
793.756,178.2226363828318
793.875,197.69276625296158
793.994,199.16289612309146
794.113,186.68064504084032
794.232,170.9525065127018
794.351,156.37501733521265
794.47,145.4641948243902
794.589,141.8053203655158
794.708,140.2641948243903
794.827,141.939519499715
794.946,142.68583984603538
795.066,134.7204718806674
795.185,135.69190045209587
795.304,128.32306928326466
795.423,121.0970952572906
795.542,113.2936320538274
795.661,104.08064504084041
795.78,98.14817750837291
795.899,91.83389179408721
796.018,82.47025543045092
796.137,83.76809092828645
796.256,77.83475759495315
796.375,83.11874027893589
796.494,84.25640261659822
796.613,84.35510391529952
796.732,79.31267967287532
796.851,75.93172729192297
796.97,72.35164071183641
797.089,71.20012556032125
797.208,78.84774460794026
797.327,96.3066190668147
797.446,107.79493075512633
797.565,116.33519049538609
797.684,117.93345889365452
797.803,122.49449785469352
797.922,114.94298270317829
798.041,105.75856711876267
798.16,96.10835066854617
798.279,89.14211690231241
798.398,78.5776147378103
798.517,75.46765802785363
798.636,83.54211690231247
798.755,90.64687880707436
798.874,93.19579655599208
798.993,96.43216019235571
799.112,92.85986582006137
799.231,94.68583984603545
799.35,90.6901688503645
799.469,85.48237664257229
799.588,90.66246322265877
799.707,85.35423811443363
799.826,79.04687880707428
799.945,66.99060175079725
800.064,68.06332902352457
800.183,79.96722512742065
800.302,94.81138097157653
800.421,100.97588313607875
800.54,115.78713854733411
800.659,118.41657577677137
800.778,117.16376192395748
800.897,111.90575326594882
801.016,118.40012556032113
801.135,120.8200389802345
801.254,132.4546710148665
801.373,136.04774460794002
801.492,141.29622945642484
801.611,147.860731620927
801.729,146.0641948243902
801.848,148.26765802785343
801.967,141.3126796728751
802.086,127.99060175079723
802.205,114.48064504084053
802.324,97.39752815772366
802.443,74.86031710660572
802.562,56.95978045308092
802.681,35.927049353485664
802.8,26.21021822736823
802.919,20.636565369773017
803.038,16.69076834984729
803.157,8.091666416188044
803.276,3.6293510285085295
803.394,-7.738348253720584
803.513,-16.962650912486737
803.632,-27.139111994877048
803.751,-30.802797921542663
803.87,-31.112926026507324
803.989,-33.64978123918463
804.108,-31.67117865547483
804.227,-21.586550110032878
804.346,-16.13702762577534
804.465,-8.869891989005922
804.583,-2.484884155650861
804.702,2.2511152592482815
804.821,8.114848368636082
804.94,7.279228143282192
805.059,17.117441454064647
805.178,23.336017730555294
805.297,18.150725314332526
805.416,16.780525250981807
805.535,26.312434920142877
805.653,26.963643213648403
805.772,36.20265394645068
805.891,41.11664858063375
806.01,58.70944719572368
806.129,76.20252410550174
806.248,107.7410034779999
806.367,143.62273819345006
806.485,179.8886096365179
806.604,205.35966126954463
806.723,223.01253108438948
806.842,218.73726237109577
806.961,211.1468421426506
807.08,197.71140026918383
807.198,195.97119649095515
807.317,186.49159877333253
807.436,176.14620018990914
807.555,182.85707866276283
807.674,181.02336839102776
807.793,183.56454989418427
807.912,195.39144568305494
808.03,214.89453194811585
808.149,240.0885273040858
808.268,271.05308543061847
808.387,299.6237041632117
808.506,316.98653068801286
808.624,307.9831234465803
808.743,286.5909716164032
808.862,263.0602916476979
808.981,242.74346449284553
809.1,222.37036028171622
809.219,220.71154178487257
809.337,216.6206886559943
809.456,199.8302684275489
809.575,187.9515365107919
809.694,182.42345394468413
809.812,184.99926748247242
809.931,194.9776784228581
810.05,211.98379499094915
810.169,235.98471675384525
810.288,248.13022726132994
810.406,253.10430919738604
810.525,258.804798059849
810.644,261.42303584006095
810.763,261.54863292763207
810.882,271.2517191926925
811.0,278.0907361936837
811.119,286.1998830648047
811.238,293.9670385939343
811.357,305.56536295423274
811.475,317.4043799552238
811.594,320.5066004194183
811.713,331.84431871911056
811.832,340.36125779802353
811.95,334.5110973098369
812.069,325.90422686494037
812.188,325.1770100996973
812.307,331.6705725552338
812.425,332.02647267310795
812.544,332.87761088622017
812.663,337.66381403439743
812.782,340.81105614361365
812.9,338.03448872902027
813.019,349.4890901455957
813.138,359.0086266271061
813.257,373.6251328055862
813.375,384.9083056507329
813.494,393.78282048722156
813.613,395.93006259643755
813.731,401.5474345757835
813.85,401.8444602347832
813.969,408.79603134832826
814.088,405.8549617692329
814.206,412.5286108048562
814.325,420.3624330006529
814.444,421.1884629886574
814.562,419.8335405957098
814.681,420.1322978564416
814.8,418.04317632929474
814.918,408.90210675019966
815.037,395.09177310184066
815.156,384.5325217045637
815.274,376.51785905187523
815.393,365.3915080874984
815.512,368.75433461229875
815.631,370.9275507474885
815.749,388.5509833328947
815.868,399.4982254421105
815.987,404.6454675513262
816.105,409.60742827526053
816.224,395.2732851030909
816.343,369.64044063222
816.461,344.14785590160875
816.58,314.4241023398286
816.698,305.5999158776155
816.817,298.74802378769675
816.936,292.9454823471287
817.055,289.1126378762577
817.173,282.72394924954267
817.292,274.46772815529505
817.41,268.18639883593914
817.529,264.7050695165832
817.648,272.57092634441335
817.766,281.28440221986256
817.885,286.1918174892512
818.004,287.5866786460857
818.122,294.18586880724934
818.241,293.98505896841294
818.359,299.4484047340012
818.478,298.9695141270392
818.597,284.28031627148675
818.715,298.168844965636
818.834,310.89785294529264
818.953,415.1595129608358
819.071,545.6169795014089
819.19,682.9249246890578
819.308,787.1905193006035
819.427,817.1179248223069
819.546,756.4483824865563
819.664,656.1205981185658
819.783,512.5914392103003
819.901,436.5816301171825
820.02,360.8641016846862
820.138,313.12831325599575
820.257,282.650945387845
820.376,247.30641260528463
820.494,222.94456380540808
820.613,211.33336435618077
820.731,210.59835538314385
820.85,220.64862779538814
820.969,231.59760150633372
821.087,258.27557954628344
821.206,292.30767014034564
821.324,305.99084298548996
821.443,311.2402495968679
821.561,305.8983142169038
821.68,290.7260758066367
821.798,260.59539583792815
821.917,232.43874184324568
822.035,217.48035624683155
822.154,209.74707887552552
822.273,202.94367163408964
822.391,203.12641157880083
822.51,201.9541731685335
822.628,193.76375294008454
822.747,193.4140253523281
822.865,205.28680858708253
822.984,214.46175632400144
823.102,218.96743999165628
823.221,230.1709591571465
823.339,234.568417716576
823.458,230.7390364491656
823.576,222.437793709894
823.695,223.44477607884744
823.813,224.93833853438105
823.932,217.2994334574471
824.05,211.85966257964736
824.169,213.70387438583015
824.287,209.02947147339836
824.406,205.75247115836925
824.524,207.26508123295088
824.643,205.0538817837231
824.761,206.3846736764869
824.88,200.12325777704308
824.998,207.5423613581188
825.117,211.06709264482225
825.235,209.82732176702365
825.354,203.18755088922507
825.472,199.04561550926206
825.591,191.38593121155
825.709,194.3046018921928
825.828,188.06223361179661
825.946,181.93761424914916
826.064,172.08399055749732
826.183,172.80439283987158
826.301,173.46245745990814
826.42,177.4322103916332
826.538,180.3283702497651
826.657,187.5751794585463
826.775,188.86354710888583
826.894,178.73892774623806
827.012,166.3909317602136
827.13,156.1702085014618
827.249,150.38151987474464
827.367,146.79023384543007
827.486,142.86734608451377
827.604,145.3929431720824
827.723,158.88823722934796
827.841,167.72292522600728
827.959,174.95068681574014
828.078,184.2667600937847
828.196,207.2832662722622
828.315,221.6694694204366
828.433,236.67731759025617
828.552,240.75096662587666
828.67,226.04799228487403
828.788,190.23728820991101
828.907,152.21140884881706
829.025,111.32550620402495
829.143,77.37817768737962
829.262,48.42829588344574
829.38,36.85580363440998
829.499,35.179141390682105
829.617,28.547619359431653
829.735,26.812898456645634
829.854,30.879698549320402
829.972,32.260901421678085
830.091,41.725609176987795
830.209,60.80845664612516
830.327,82.8207690502093
830.446,109.66096409425109
830.564,124.65721037185952
830.682,142.96399142965262
830.801,148.18840956208206
830.919,138.20676708845096
831.037,131.53594712564234
831.156,123.5214042191109
831.274,108.62201282773114
831.392,92.746863860594
831.511,90.68210450384652
831.629,99.69353562328959
831.747,108.41838665615252
831.866,109.96228530806297
831.984,120.1304263842157
832.102,115.56280055019064
832.221,100.98265568658712
832.339,86.35285592580588
832.457,93.15120632737396
832.576,86.5478472734649
832.694,87.616568813752
832.812,84.79488903601444
832.93,84.78969509989855
833.049,76.11431574821819
833.167,63.20582807436992
833.285,63.777444996353424
833.404,70.42407262838452
833.522,71.02923668782154
833.64,81.44033399916475
833.759,90.7638116556964
833.877,106.16702653691962
833.995,125.65237407142978
834.113,144.64233616244152
834.232,177.4877095088646
834.35,195.810139132344
834.468,205.39577221902664
834.586,212.20737933168323
834.705,204.96444098979427
834.823,187.89379702019966
834.941,173.39631322376522
835.059,157.58367791217933
835.178,150.6455014750523
835.296,142.0112211418214
835.414,137.6756421072916
835.532,151.90196783466632
835.651,164.3603281940756
835.769,176.38751972231594
835.887,189.45626969211463
836.005,207.08259541948888
836.124,225.39636703430915
836.242,238.86338540237617
836.36,247.61698385702329
836.478,268.22599356708173
836.596,289.04192968406676
836.715,305.9868701300561
836.833,313.07813092236586
836.951,327.110517255801
837.069,336.27277371910634
837.188,339.5579739053552
837.306,341.6656849141149
837.424,352.46603661551524
837.542,361.8360852866126
837.66,366.3896837412598
837.779,367.26968912231393
837.897,362.6812962349701
838.015,360.985544040267
838.133,358.2084065641784
838.251,362.42520848202923
838.369,362.96322252109223
838.487,366.15231881123736
838.606,370.94401250397993
838.724,375.43094429196066
838.842,373.44947781154315
838.96,364.77710224021666
839.078,356.62593879010217
839.196,360.73105239626466
839.315,366.8656032318645
839.433,370.61920168651193
839.551,372.2074321757914
839.669,370.1618964313046
839.787,369.3336767041337
839.905,358.0942015657075
840.023,345.59844937100434
840.142,352.22823830184245
840.26,348.30131727597075
840.378,341.3085953842982
840.496,338.56349254024497
840.614,335.8400347178368
840.732,338.1183084971603
840.85,336.6268853067869
840.968,332.3908733718248
841.087,339.72629000829124
841.205,337.776858159909
841.323,347.89755618165646
841.441,363.82171740686704
841.559,372.90345438965346
841.677,384.3661437533923
841.795,392.91368160197965
841.913,405.74087313022085
842.031,426.4962031866006
842.149,441.3320527234997
842.267,453.67612736862384
842.385,462.23405482760074
842.504,464.07509916969457
842.622,464.86246385810864
842.74,468.16671166340586
842.858,478.02074301848666
842.976,492.189925888719
843.094,486.93313473297724
843.212,480.80101890191065
843.33,473.2325394344804
843.448,468.4138435168335
843.566,461.12068872472776
843.684,472.56692787201604
843.802,485.5768033829407
843.92,498.11395162113814
844.038,510.36019076842626
844.156,526.6921442014286
844.274,537.6327556430892
844.392,544.5950121063947
844.51,539.346878959311
844.628,537.5732046866859
844.746,519.4497468642776
844.864,488.2708777864582
844.982,457.89114290777275
845.1,429.6031829208621
845.218,400.38708440581297
845.336,374.5510724708504
845.454,347.20164062246795
845.572,325.4608667827435
845.69,302.28805831098435
845.808,282.16460048857584
845.926,269.3086751336997
846.044,262.48651601258973
846.162,251.9578633849864
846.28,237.13916746733992
846.398,215.98107761029968
846.516,199.26800939828115
846.634,181.71165114297267
846.752,163.81849635086786
846.87,143.99633722975867
846.988,136.45989239436378
847.106,116.13457616390968
847.224,102.5011193627735
847.342,94.41434209123716
847.46,98.78973381206725
847.578,92.71266147039547
847.696,86.2171605000443
847.814,86.60071260041781
847.932,97.42078253303883
848.05,93.84460167133204
848.168,110.7810445805201
848.285,129.38319436416637
848.403,148.45453007655047
848.521,153.80823408197523
848.639,162.54548787094978
848.757,170.83512261230536
848.875,176.63125086015435
848.993,176.40227088289515
849.111,194.70142943377448
849.229,210.55556633963212
849.347,224.48069891648535
849.465,234.82055010805703
849.582,235.0937346329619
849.7,234.61280660375422
849.818,235.09118593385364
849.936,233.05614535053326
850.054,245.74491429102227
850.172,258.96268756051575
850.29,269.06444351399193
850.408,278.35407825534696
850.525,278.3770463300355
850.643,281.0813996861094
850.761,282.6420300984604
850.879,283.0944354025863
850.997,288.6282259880974
851.115,295.22695163854354
851.233,298.26377252708494
851.35,310.57851549354837
851.468,315.4049467717002
851.586,331.47726549573963
851.704,355.6058612760563
851.822,386.243547965464
851.94,429.98945976309693
852.057,482.7942460196043
852.175,532.3141837912634
852.293,585.4384505672515
852.411,630.28219786272
852.529,679.6947763270196
852.647,712.5082205921849
852.764,737.6575955932808
852.882,768.8260182134243
853.0,786.5251767643036
853.118,789.3334262242741
853.236,782.717433260002
853.353,777.0581502524401
853.471,759.3581746041853
853.589,720.163826661558
853.707,679.9365782860305
853.824,651.7690701702429
853.942,624.3539430068363
854.06,605.2531015577155
854.178,577.8154635717982
854.296,555.6020680101233
854.413,522.4631313229074
854.531,477.6748439863409
854.649,428.6597168229347
854.767,379.2954554603946
854.884,337.35889972556015
855.002,280.70243057081234
855.12,229.54682721693047
855.238,192.61330178512634
855.355,158.5754473489932
855.473,133.59430286956996
855.591,114.56683804382627
855.708,97.8437022224116
855.826,86.18974424368432
855.944,57.655775289961056
856.062,43.05478425884401
856.179,25.115330314749993
856.297,7.361697687600106
856.415,-2.415382980295223
856.532,-13.387943538932017
856.65,-24.375190161772732
856.768,-23.6472571005812
856.886,-27.72712453332631
857.003,-26.902499284676033
857.121,-32.312880994529365
857.239,-34.20570406265167
857.356,-34.78010819290018
857.474,-37.68601603940395
857.592,-43.91493255721946
857.709,-30.797625631687822
857.827,-23.47917985341331
857.945,-9.937886500682183
858.062,-8.74106282470548
858.18,-0.6105603361038874
858.298,-2.7878471677451993
858.415,-0.9139726754440449
858.533,-5.64855114065516
858.651,-1.1537585148292688
858.768,-1.3091476170784322
858.886,0.5656034645812804
859.003,-9.920086075536567
859.121,-13.016184493522431
859.239,-14.139461651733546
859.356,-22.10331334173798
859.474,-24.10817582379942
859.592,-18.836186888617355
859.709,-12.134022379801927
859.827,-6.809929186707615
859.944,-8.631216625997656
860.062,-9.462060888483117
860.18,-6.893175944292274
860.297,-13.808276582708029
860.415,-6.561860177315081
860.532,5.613639952472156
860.65,18.668185718758103
860.768,35.76268037722058
860.885,46.14521130422725
861.003,48.84499672335861
861.12,51.13506216062087
861.238,46.22339599615126
861.356,43.48748740743903
861.473,48.0658645330123
861.591,54.43731525165921
861.708,66.67889584043598
861.826,72.01571452445086
861.943,63.37213512569389
862.061,62.26786873449913
862.178,49.44630824470465
862.296,39.85461493373862
862.414,37.19350201240326
862.531,41.912039819680075
862.649,48.767828982902465
862.766,61.10578829654409
862.884,60.06248372654794
863.001,67.10662504399752
863.119,63.79232480300546
863.236,62.04512412911276
863.354,62.68407064136724
863.471,65.6450950756998
863.589,66.54637925029195
863.706,75.39311797033857
863.824,82.89078108292495
863.941,91.65303925120253
864.059,97.5020724888046
864.176,108.4323145871486
864.294,112.22038892285798
864.411,108.91478034441752
864.529,97.49297802931622
864.646,93.87965730222962
864.764,97.21854110688048
864.881,95.57951332521873
864.999,95.74360752721759
865.116,106.89424235116103
865.233,128.65872998895725
865.351,152.25958126311707
865.468,165.94095201779632
865.586,194.43617558632855
865.703,207.05607447953605
865.821,205.33311622988646
865.938,193.98504975512867
866.056,190.13828198166962
866.173,180.49324580994187
866.29,180.60232219232643
866.408,178.23693970025192
866.525,186.63432777094798
866.643,186.7027115126396
866.76,187.11395239718854
866.878,183.6135049700493
866.995,191.1398973697501
867.112,190.25157115473223
867.23,195.22818000464935
867.347,195.232494482272
867.465,191.73983926292493
867.582,196.4082230046168
867.699,200.527688997391
867.817,202.40386494687516
867.934,209.8696512859697
868.051,225.52331641294305
868.169,231.2228689858038
868.286,240.31722675346987
868.404,245.8808485904001
868.521,260.45832324118317
868.638,285.6479191040874
868.756,310.709376438853
868.873,328.8375004402851
868.99,365.50501838111103
869.108,396.39504714444774
869.225,427.0677598904685
869.342,448.1811652771819
869.46,477.0088563781811
869.577,509.8625215051544
869.694,533.0564463723874
869.812,536.6079469971964
869.929,547.071135933694
870.046,555.727398463265
870.164,552.2087692179443
870.281,544.1654646479484
870.398,547.7212942770866
870.516,538.5654355945366
870.633,526.558494660904
870.75,503.5073978831157
870.867,482.51257816160467
870.985,470.11862424095955
871.102,449.14891274455687
871.219,425.6727077416607
871.337,410.8458533881154
871.454,398.6830682986394
871.571,388.1722312611114
871.688,365.6484072105964
871.806,340.48995112544947
871.923,316.30985001865747
872.04,292.0596190417355
872.157,263.6215092769345
872.275,250.1513648800988
872.392,243.22407762612025
872.509,228.5418120171633
872.626,201.9244814731415
872.744,183.30801672998558
872.861,166.09068618596405
872.978,152.13482750341456
873.095,133.89758353947985
873.213,124.9261404413462
873.33,106.4741778626931
873.447,86.47502913685375
873.564,63.68280681794059
873.681,53.433441641884485
873.799,47.02909811084996
873.916,37.07857335952552
874.033,24.62596730829457
874.15,23.49390909911024
874.267,10.362365726085923
874.385,6.816893325788372
874.502,4.099306198723331
874.619,2.611017050815877
874.736,0.6477386422412161
874.853,2.282159747039878
874.97,-6.512455372198082
875.088,-3.262211495790579
875.205,-7.368930095834451
875.322,-3.1169494588187066
875.439,1.6079207755123939
875.556,-2.7227153354136284
875.673,-0.5339286364053867
875.791,9.102303756557761
875.908,-0.183346122299354
876.025,-1.4315769705064278
876.142,-2.4867505355908603
876.259,-0.9596605483591275
876.376,-3.022684193475097
876.493,-6.310884537299089
876.61,1.6577690138223853
876.728,7.263513713677285
876.845,11.451164540836904
876.962,15.15348584832812
877.079,13.436148322176004
877.196,11.023664886438715
877.313,5.789759502159924
877.43,-0.3486760417089957
877.547,-5.65485649205427
877.664,-13.058357768487749
877.781,-9.624097665488934
877.898,-6.084770534560921
878.016,-2.42929360524637
878.133,1.090874003262028
878.25,12.713970727599804
878.367,15.612972336132533
878.484,15.562442660534959
878.601,13.320479781422177
878.718,12.720826301049836
878.835,0.8530218589170857
878.952,-7.468982151989649
879.069,-17.94143838375675
879.186,-19.300375625845245
879.303,-18.357839095591657
879.42,-16.056819051585073
879.537,-14.449585203538549
879.654,-9.217456954154358
879.771,-14.02471584757999
879.888,-15.428313573496084
880.005,-17.58269832567178
880.122,-20.444984115250893
880.239,-24.01517094223344
880.356,-28.29325880661942
