wavelength_nm,intensity
792.446,266.5051487872723
792.565,221.08211848424196
792.684,182.45995398207745
792.803,150.63865528077872
792.922,125.61822238034563
793.041,97.2822916444149
793.16,88.79744315956641
793.279,94.08662064874397
793.398,113.44073320285649
793.518,146.6415990037223
793.637,178.7212526833759
793.756,210.69874186086503
793.875,230.14549510761822
793.994,236.80523536735842
794.113,223.4260145881376
794.232,200.9316422937653
794.351,183.51086307298607
794.47,171.97579813792117
794.589,157.09268125480435
794.708,150.80523536735848
794.827,145.46930463142778
794.946,157.55675051887363
795.066,150.18705354917668
795.185,147.7177894799126
795.304,147.71952108164425
795.423,141.60869857082167
795.542,134.6459280080512
795.661,130.35761631973952
795.78,124.96627432839762
795.899,129.36540852753186
796.018,123.36973753186089
796.137,114.34982411194751
796.256,109.75934792147127
796.375,108.75848212060538
796.494,100.83447433611374
796.613,91.94032455513596
796.732,84.15414965160315
796.851,82.79000589706004
796.97,82.77451233728868
797.089,79.44079018624748
797.208,92.87564897325734
797.327,117.66157788499332
797.446,120.56852065725936
797.565,131.4633422174041
797.684,131.73651875590372
797.803,138.12051780522575
797.922,134.52529607532713
798.041,121.63829945365376
798.16,117.12706040773793
798.279,108.50413305013373
798.398,98.37384638517025
798.517,101.84182811847518
798.636,100.87431201628202
798.755,114.71978292707574
798.874,111.96005903267468
798.993,111.35877669671525
799.112,112.57221297547443
799.231,111.99690466548918
799.35,110.33155306546084
799.469,111.5882793875104
799.588,107.32292778748196
799.707,105.19090952078693
799.826,92.0095406047412
799.945,88.87146173198555
800.064,94.86844779429475
800.183,109.02041221158231
800.302,112.62951948601275
800.421,127.0386267604431
800.54,135.22435741149675
800.659,148.5131183655809
800.778,159.37677109455706
800.897,164.0698610529704
801.016,170.388059236492
801.135,170.37032668408287
801.254,165.63744261652215
801.373,170.41711266151546
801.492,167.05305976278555
801.611,176.9374917125406
801.729,187.5431357835076
801.848,187.36955907525373
801.967,177.3474975185149
802.086,155.40162643796646
802.205,135.3605172621799
802.324,111.17277328362457
802.443,80.44782311501038
802.562,57.339109540029106
802.681,50.06923669772246
802.8,40.63054160840935
802.919,32.53974115378804
803.038,23.767928702656434
803.157,14.101253016497349
803.276,3.129396645303297
803.394,-12.647297403820131
803.513,-22.71905777954597
803.632,-26.402098564217425
803.751,-25.562104761013703
803.87,-19.548834467866097
803.989,-14.926264131061016
804.108,-15.594808268454926
804.227,-18.063347578656263
804.346,-22.142186226641645
804.465,-9.446508838369889
804.583,-4.936246311140233
804.702,1.2217300530453805
804.821,4.012632890095978
804.94,8.748937644894554
805.059,9.34436881578676
805.178,6.495509636465339
805.297,10.603937868876109
805.416,18.950657120226808
805.535,24.697823505310662
805.653,21.3924380465915
805.772,24.504969376300984
805.891,43.246844117302324
806.01,75.29845440823105
806.129,108.91113060019777
806.248,154.21403744886948
806.367,187.97755629268025
806.485,218.53761193302788
806.604,239.1686632443712
806.723,256.1711431271432
806.842,258.9762204125127
806.961,257.2185271351117
807.08,240.0582364551134
807.198,233.6615821387515
807.317,211.71341267087442
807.436,200.17390121165522
807.555,201.03092654897267
807.674,206.79877439711248
807.793,217.07224995087995
807.912,236.74918870811052
808.03,268.8901967294104
808.149,308.1619406814463
808.268,338.01636861616623
808.387,364.293307373397
808.506,382.8620210224027
808.624,377.0809511216249
808.743,364.45139637236207
808.862,334.75777235902996
808.981,307.5836288651784
809.1,286.561000522842
809.219,270.7617488038822
809.337,252.34951007193538
809.456,246.81692501964227
809.575,242.81680749981675
809.694,248.42794539124657
809.812,256.8529360965293
809.931,269.94286186674697
810.05,297.4899304941075
810.169,324.6794233638923
810.288,324.2533318180926
810.406,328.3614394064921
810.525,320.87733920268374
810.644,318.7508147564513
810.763,324.21303489896343
810.882,333.73412950035004
811.0,343.55305959957235
811.119,362.35294207974715
811.238,374.1242531313508
811.357,395.4159105033008
811.475,398.388953156636
811.594,404.2000910480664
811.713,411.2623111905789
811.832,421.95656596512583
811.95,415.73566922452136
812.069,417.0628244319689
812.188,420.4748281242653
812.307,426.44440757413724
812.425,423.2209134309355
812.544,422.11863140894593
812.663,421.9444879150949
812.782,434.6352794861789
812.9,442.30875503994685
813.019,460.146732758217
813.138,475.0236715154483
813.257,489.346497718567
813.375,504.5593672117292
813.494,516.4285137611683
813.613,525.339218752166
813.731,534.1235168167568
813.85,533.8117109852437
813.969,546.0557493095749
814.088,550.2028179369364
814.206,546.7533497677609
814.325,551.4346175293216
814.444,554.9617727367695
814.562,557.6014820567714
814.681,550.6160831516647
814.8,548.9960522119261
814.918,544.0297009258671
815.037,540.199280375739
815.156,529.6727559295069
815.274,526.6960150330583
815.393,527.6638628811985
815.512,528.9079012055291
815.631,525.3069178848378
815.749,535.421086079298
815.868,527.0486741871781
815.987,526.4147904335865
816.105,510.76618806527637
816.224,496.3626073419881
816.343,476.8395460992196
816.461,454.67492641489264
816.58,427.75532837558734
816.698,405.7370290375808
816.817,380.56375134459586
816.936,365.11947798061556
817.055,352.76957691100756
817.173,342.1486801704041
817.292,337.65159295361025
817.41,339.01338019569096
817.529,336.1465960092002
817.648,336.1352230781208
817.766,341.599174822366
817.885,341.3228668263515
818.004,346.2110609948392
818.122,350.5451426092144
818.241,358.16493850930397
818.359,361.5495747397283
818.478,358.23857834810974
818.597,333.8881572958855
818.715,342.46539278157866
818.834,346.4877956149178
818.953,477.4421493407942
819.071,645.3751561310191
819.19,818.4070898497957
819.308,949.7665094475256
819.427,992.2950482347867
819.546,916.5627910273365
819.664,789.0452150233403
819.783,611.4482375949099
819.901,519.6648840124234
820.02,427.2588269582559
820.138,376.0983276966334
820.257,338.80969391904216
820.376,307.9680179576585
820.494,276.83110390103656
820.613,264.213670363895
820.731,267.1338991644157
820.85,280.0922232030317
820.969,302.0011965922971
821.087,339.94913102052385
821.206,377.32303947472474
821.324,400.28482671680456
821.443,406.9903369026074
821.561,404.2006089931722
821.68,380.9987598716157
821.798,342.0549194080678
821.917,305.9552347886756
822.035,280.38022549395885
822.154,267.6337876278138
822.273,261.0276095019285
822.391,265.6300893847013
822.51,271.3174177523226
822.628,269.01946473466256
822.747,267.9864467819375
822.865,266.2711777469613
822.984,276.85720741328373
823.102,279.81466565103483
823.221,290.81368233034436
823.339,295.6689760659309
823.458,295.0688585461062
823.576,286.1570527145929
823.695,281.19416463199747
823.813,272.6494583675837
823.932,275.33332353174137
824.05,266.57476445347487
824.169,275.7772443362471
824.287,276.95634759564285
824.406,276.21250713209474
824.524,270.2556796555596
824.643,274.59235867253096
824.761,271.00089916136386
824.88,271.27870371946085
824.998,276.45520957625934
825.117,282.88452928587157
825.235,272.86709574873055
825.354,266.2548570167844
825.472,259.7257351679551
825.591,264.2572193797318
825.709,256.57138757419256
825.828,256.7444302275278
825.946,258.3460443094348
826.064,253.4697363134198
826.183,244.56918589316254
826.301,249.77772638199625
826.42,252.87890756347076
826.538,252.1194826843393
826.657,249.80075044590046
826.775,248.85690998235333
826.894,241.36501757075445
827.012,234.63849312452356
827.13,226.066947033271
827.249,223.47462172123915
827.367,212.5333786602896
827.486,210.77481958202418
827.604,222.29071937821755
827.723,231.14168410947588
827.841,245.69827654636217
827.959,260.22283435121375
828.078,273.99674280541603
828.196,286.72130061026763
828.315,293.44845581771676
828.433,306.2041824537371
828.552,304.4447575746059
828.67,284.32775693789915
828.788,251.04538833582444
828.907,209.0063097770398
829.025,169.10759667320997
829.143,133.36346067157368
829.262,105.60104914521546
829.38,84.96417963568597
829.499,70.30515997247798
829.617,56.565687080455206
829.735,49.222195334962734
829.854,56.78520083584871
829.972,74.58025378841589
830.091,106.40425437102871
830.209,125.31859298724166
830.327,153.16560954662657
830.446,175.00210822638923
830.564,188.31496261081372
830.682,204.43387760129872
830.801,210.89651553550664
830.919,205.7859932965544
831.037,196.34646672859787
831.156,170.48096613466726
831.274,162.2223919476631
831.392,146.51186970871095
831.511,144.85675872517004
831.629,150.1851975251788
831.747,154.8989177104689
831.866,149.27324395636504
831.984,152.15579531048616
832.102,163.26345488971538
832.221,155.1924582271298
832.339,142.76408664927493
832.457,142.23596534610763
832.576,134.82006932399997
832.694,128.15393101528718
832.812,112.38651887415057
832.93,114.21399210757261
833.049,119.58435610862952
833.167,95.6250208300155
833.285,89.8044563223479
833.404,95.60317299654842
833.522,103.27939085267084
833.64,114.60725453669261
833.759,133.5086560339983
833.877,166.42524483084833
833.995,196.19176409251523
834.113,216.02907463228587
834.232,246.725259630931
834.35,270.1816177897494
834.468,280.5721750827671
834.586,279.29606570911824
834.705,272.891817807331
834.823,262.80185561982955
834.941,235.9880839085185
835.059,214.26955029244542
835.178,203.19170931706503
835.296,199.5753402031565
835.414,201.5321312624081
835.532,211.32528595802341
835.651,224.91844065363875
835.769,235.67350011115883
835.887,242.83375437387366
836.005,264.8719307145105
836.124,283.73002047506077
836.242,301.5309673784683
836.36,323.4747714247329
836.478,349.09909495151703
836.596,369.40653536141804
836.715,376.92349958084276
836.833,395.65431661412026
836.951,419.52279598506004
837.069,425.63716280188726
837.188,433.0493651165501
837.306,438.7412211108667
837.424,449.7845922566986
837.542,448.33965171421863
837.66,443.30336918039666
837.779,456.7493377288257
837.897,465.5892456711939
838.015,461.93997612438477
838.133,463.123607010476
838.251,459.890787680117
838.369,470.6848081765977
838.487,468.29094988519955
838.606,470.10142059813023
838.724,475.0002029993726
838.842,475.61500271663215
838.96,468.42460762869683
839.078,460.2861605927094
839.196,465.79446680347513
839.315,471.71576002722753
839.433,461.5634601773867
839.551,459.7427620591476
839.669,450.77660939545393
839.787,452.00353032483383
839.905,453.6529620767245
840.023,460.0019609281822
840.142,471.1423017709818
840.26,468.20731793845675
840.378,455.6809921145896
840.496,451.2758784119346
840.614,442.15474739326254
840.732,439.98772892870295
840.85,436.0250394684724
840.968,441.4069387528308
841.087,448.2052882536394
841.205,460.12052087133134
841.323,465.26692232019195
841.441,482.80726316299194
841.559,499.5398117979996
841.677,515.1598063204531
841.795,524.8733073364133
841.913,540.1772845428496
842.031,556.4907855588099
842.149,576.1618623323461
842.267,581.6286101015532
842.385,603.3126738880765
842.504,611.8227117005736
842.622,627.0132689935904
842.74,627.7380254208063
842.858,624.8731714584118
842.976,616.8342915219914
843.094,608.4586150487744
843.212,605.9894320820508
843.33,609.5003356954137
843.448,612.5454384429758
843.566,621.4572078572045
843.684,626.7681114705672
843.802,639.6469804518952
843.92,648.9310442384183
844.038,655.8757140855473
844.156,667.0446263569191
844.274,671.1243611391136
844.392,677.356476873689
844.51,670.8820991017708
844.628,661.5202754424067
844.746,659.0103998349905
844.864,641.3256324526824
844.982,606.9153239448333
845.1,560.0244959564644
845.218,516.96570260013
845.336,470.3484676853541
845.454,432.38577822512354
845.572,402.32352166532587
845.69,382.8006590449222
845.808,367.19900854573075
845.926,352.8536351028165
846.044,332.49787204951247
846.162,319.5810700351693
846.28,294.1932723498307
846.398,277.69898115799873
846.516,253.68694104841785
846.634,226.21516067909684
846.752,203.50788247427823
846.87,183.5157557846113
846.988,173.40414857546386
847.106,155.22136738527104
847.224,141.39224042198
847.342,134.6672170239823
847.46,122.68773562548151
847.578,112.26154843181844
847.696,109.05016730691663
847.814,110.72557372999229
847.932,126.42476425009964
848.05,122.85970719608824
848.168,139.68252892995582
848.285,153.02136797984068
848.403,164.26063993015833
848.521,171.87566945623354
848.639,179.78680287841252
848.757,202.44252504518016
848.875,228.2307147444152
848.993,241.67085249559833
849.111,254.35860929440065
849.229,265.90177734861425
849.347,274.5263306842129
849.465,274.03573250466013
849.582,276.5018442818171
849.7,290.6147093057273
849.818,304.8427258447889
849.936,308.7174956306038
850.054,312.26759009174344
850.172,321.23846377366226
850.29,323.9859608322042
850.408,321.1447133020017
850.525,328.87835754669095
850.643,335.0068069861852
850.761,343.53698802741127
850.879,346.61868422015266
850.997,350.1886921012058
851.115,355.9119467355057
851.233,356.0031667377709
851.35,361.42772007336964
851.468,380.7509747076698
851.586,404.72444579218615
851.704,437.67280865159444
851.822,485.1016909915221
851.94,534.1712659721424
852.057,599.3352132471346
852.175,662.7234029463696
852.293,730.2007701347818
852.411,791.3621200071772
852.529,838.3572361133387
852.647,883.5159885831367
852.764,923.1024466806405
852.882,948.9174762067157
853.0,972.518652918938
853.118,975.3674486787795
853.236,962.438755261132
853.353,938.0442609776833
853.471,905.7822342267025
853.589,871.0864412419553
853.707,832.7707348372949
853.824,799.5554613330672
853.942,774.5800146686665
854.06,742.2288104285087
854.178,700.6291213398658
854.296,662.6328954546859
854.413,623.0401327729693
854.531,570.8395778834604
854.649,510.03642559135426
854.767,454.1492906152654
854.884,407.165185942207
855.002,352.88670897477664
855.12,291.9458943450085
855.238,240.76785027801097
855.355,205.3066893278966
855.473,166.22648075873468
855.591,122.28146387859644
855.708,89.72088270647305
855.826,62.88680310019721
855.944,33.30907047175775
856.062,7.630909148208347
856.179,-1.0275612290799891
856.297,7.406072029707941
856.415,6.970314888452921
856.532,2.622876002505186
856.65,-2.5885999939538715
856.768,-13.452544207738566
856.886,-27.44869712048009
857.003,-41.601645810301946
857.121,-44.27721042021851
857.239,-44.60504503397814
857.356,-39.848640722435434
857.474,-35.07022389836479
857.592,-28.639402874483935
857.709,-27.36142594324306
857.827,-22.159967710358767
857.945,-22.604826292598567
858.062,-11.957918651746988
858.18,-8.218376867127347
858.298,-0.6855714578866223
858.415,4.32041616414637
858.533,7.609733025222395
858.651,6.7525750894844805
858.768,5.783620466765557
858.886,4.95900033335805
859.003,10.894307688068638
859.121,0.3675748464676447
859.239,-8.853811951686733
859.356,-20.83155008653894
859.474,-28.115565359987592
859.592,-27.548355910736355
859.709,-26.97006502527744
859.827,-16.936134891125207
859.944,-11.11834452905073
860.062,-10.085308305207363
860.18,-12.338203435867534
860.297,-15.942507920490236
860.415,-14.541461081937587
860.532,-8.130919263993981
860.65,3.2371570341377227
860.768,21.066151438738704
860.885,38.22362967096738
861.003,55.99664845994928
861.12,62.42518566813747
861.238,68.5084101971976
861.356,64.36957349587418
861.473,64.48008744390133
861.591,64.51181351314048
861.708,67.50371274255282
861.826,71.16660764296094
861.943,72.708290422157
862.061,63.34104879901203
862.178,55.042094439765634
862.296,43.997005250729686
862.414,45.26466044322392
862.531,44.161656117991285
862.649,43.42334422623694
862.766,48.093875859671485
862.884,52.21451293882253
863.001,48.30155029095698
863.119,50.48815474265861
863.236,55.419347938948974
863.354,61.88474026943841
863.471,69.17870402849934
863.589,76.5072998221925
863.706,85.75797353796347
863.824,91.74630959139685
863.941,99.70174521192973
864.059,108.42341459869644
864.176,113.71131775169691
864.294,106.90225120772763
864.411,104.82911539968904
864.529,100.06247309814398
864.646,100.30795200871992
864.764,106.85905862492365
864.881,120.77813060909267
864.999,129.29460519066427
865.116,146.57211873327498
865.233,162.42885305510652
865.351,184.02757871892936
865.468,204.86093641738424
865.586,222.80598242752745
865.703,233.63414532078752
865.821,234.07356362530297
865.938,225.2090858259224
866.056,219.2606253425592
866.173,216.2922514392825
866.29,219.192275804404
866.408,222.8290967063221
866.525,224.65552799785078
866.643,228.2023056097257
866.76,229.35081482333226
866.878,226.84391278152765
866.995,219.29891550162785
867.112,219.38508705289678
867.23,222.24615037905758
867.347,221.85613145413618
867.465,225.3284501915524
867.582,241.14016286836252
867.699,255.40555519885208
867.817,261.3402115986058
867.934,265.3190238425151
868.051,276.63896162754986
868.169,292.3978604515456
868.286,298.6476683664505
868.404,311.76933775321675
868.521,335.60615865513444
868.638,359.95466786874056
868.756,385.1966835758532
868.873,409.06813651240304
868.99,443.0114509208144
869.108,480.1833367577973
869.225,516.6842269237844
869.342,561.9383638430182
869.46,613.118041887793
869.577,654.9669840018321
869.694,691.6834585834036
869.812,704.5722275372698
869.929,709.9083990885384
870.046,701.2679472631839
870.164,677.8305257408597
870.281,651.6368271622584
870.398,641.6530852936137
870.516,627.7243217799473
870.633,627.3094110801336
870.75,605.9148467006664
870.867,589.9579446588614
870.985,572.2824278984418
871.102,539.4023656834768
871.219,514.0461129923214
871.337,501.36172177302734
871.454,482.25049072689353
871.571,463.86480080630076
871.688,428.5466433532406
871.806,395.98173265342734
871.923,369.5129258497179
872.04,337.86662986851917
872.157,315.5631910301776
872.275,302.62512015720404
872.392,275.53726573444703
872.509,251.17495243723118
872.626,227.40484693222308
872.744,207.32478471725813
872.861,192.8222116797823
872.978,172.3681234907912
873.095,155.75732534509007
873.213,142.2573497102115
873.33,112.20672472468351
873.447,87.29722528028108
873.564,61.19205484020763
873.681,46.59943851268825
873.799,30.999585966373452
873.916,20.70029677429357
874.033,13.371698080123306
874.15,11.27175913365014
874.267,7.6682841031730895
874.385,6.851274306380889
874.502,2.5330042028417257
874.619,1.2103561307552035
874.736,3.784324593170924
874.853,2.2912062117764114
874.97,-3.2262583710753328
875.088,-1.5184384168912581
875.205,-1.2859951172210293
875.322,1.849021802809826
875.439,3.2893961907952445
875.556,0.14053314322001764
875.673,4.288789042160497
875.791,-2.83640596291667
875.908,-12.332780773800785
876.025,-17.717544052672412
876.142,-18.11322631152592
876.259,-14.94561861795914
876.376,-8.742382157330283
876.493,-7.99532865229048
876.61,-4.759135342242052
876.728,-2.1990654792874897
876.845,2.4137367427384224
876.962,6.931008393029343
877.079,10.303272105924648
877.196,7.682700738935553
877.313,10.794345384390711
877.43,2.2768247543334987
877.547,-4.271863420525435
877.664,-5.381592749455958
877.781,-2.7659898027657963
877.898,-3.1461150489811383
878.016,-7.343448121901628
878.133,-4.661227393333763
878.25,-2.972165429589808
878.367,-15.786655357192874
878.484,-21.520648779096284
878.601,-21.789070215011332
878.718,-20.716758691985337
878.835,-18.19646640677585
878.952,-14.540666607472286
879.069,-2.100945829824648
879.186,-1.3566315751351588
879.303,-7.826947829010101
879.42,-11.033484529168732
879.537,-16.61833072598552
879.654,-25.570941808399002
879.771,-27.27310998650611
879.888,-31.20178482036339
880.005,-32.90584872665114
880.122,-32.99537668651714
880.239,-31.470368699961412
880.356,-28.33082476698395
