wavelength_nm,intensity
792.446,226.82857714607357
792.565,183.543728661225
792.684,147.40217021966652
792.803,118.40390182139807
792.922,96.54892346641957
793.041,75.53853385602997
793.16,69.85714857464464
793.279,80.60260312009915
793.398,97.99134770884376
793.518,120.07359879109482
793.637,148.92987584737185
793.756,184.07619619369217
793.875,200.31775463525054
793.994,199.84762476512066
794.113,190.58355550105142
794.232,177.8554169729129
794.351,154.7497892672853
794.47,137.85368537118143
794.589,130.99221350970956
794.708,130.96710528460125
794.827,128.65108796858388
794.946,126.63117454867047
795.066,123.94805766555365
795.185,124.14113125862727
795.304,119.48312260061864
795.423,114.58355550105155
795.542,110.65281957031564
795.661,100.5549840724801
795.78,99.81039532789138
795.899,97.71948623698233
796.018,96.48831740581352
796.137,99.49524381273994
796.256,96.25368537118152
796.375,96.52294944044559
796.494,85.01341372738824
796.613,68.95669980283378
796.732,61.079537978657356
796.851,61.008962112979816
796.97,59.89568623354411
797.089,62.81497033858128
797.208,71.1406463708363
797.327,90.42736929981928
797.446,104.51970803089642
797.565,110.83888658881335
797.684,115.35200454066953
797.803,116.32572855313173
797.922,108.97217983832115
798.041,98.68356618844555
798.16,87.42352396714124
798.279,82.28382806618313
798.398,81.81945684054959
798.517,76.92997738980768
798.636,76.37036806893582
798.755,76.39171112901627
798.874,78.49357366961627
798.993,88.140024954805
799.112,91.15877061228812
799.231,98.46582795808294
799.35,93.87245240344484
799.469,88.11630628603601
799.588,83.25799566646272
799.707,81.557260804465
799.826,74.55955624549765
799.945,76.19302051769884
800.064,80.70267526609051
800.183,89.99501399716615
800.302,85.90899774988677
800.421,95.62471310433881
800.54,106.45298257134485
800.659,115.9176156747144
800.778,120.0982660941012
800.897,130.08497711954843
801.016,134.09333316664066
801.135,134.57528228732605
801.254,124.2096123603923
801.373,124.77294676246294
801.492,125.6263244545768
801.611,129.75762422461275
801.729,138.07766858339335
801.848,152.21676056122146
801.967,148.18615556935248
802.086,139.81355923549205
802.205,121.26433952500825
802.324,103.48654838595303
802.443,81.1961413960941
802.562,59.34148114952447
802.681,41.0591284615805
802.8,29.429771707628902
802.919,11.196672484170106
803.038,-0.6323557568276753
803.157,-8.150448523019243
803.276,-15.517586387340858
803.394,-24.86652252583038
803.513,-23.710053527102172
803.632,-25.09052421799685
803.751,-23.70771397814167
803.87,-27.691847886481174
803.989,-28.68468855779136
804.108,-27.72439152567337
804.227,-26.846491645499405
804.346,-22.82860255821966
804.465,-11.005546921322953
804.583,-7.087483817758815
804.702,2.958033113669919
804.821,4.705153037877146
804.94,7.742512256134802
805.059,7.3433159790997475
805.178,9.566921600814405
805.297,10.543530879975481
805.416,20.574844337240016
805.535,34.81537079773063
805.653,47.218567497172884
805.772,52.90508622754527
805.891,67.00487515969648
806.01,74.50406033165288
806.129,85.53270857520184
806.248,102.56568582307978
806.367,125.55104402333856
806.485,155.27666196385698
806.604,181.87760457969995
806.723,210.36772468472054
806.842,223.61801794991436
806.961,221.77653632333343
807.08,208.83721919891704
807.198,194.29617047276923
807.317,172.4849918764915
807.436,155.30238470878527
807.555,150.1734571947587
807.674,160.48089331709588
807.793,170.84720389830755
807.912,195.86719413319878
808.03,222.8153228962286
808.149,247.8993823951892
808.268,275.98690509761286
808.387,290.74975247536116
808.506,301.0822968228064
808.624,299.5438454992559
808.743,290.8201127904239
808.862,274.3647783499901
808.981,247.66182486193736
809.1,225.84371985873295
809.219,214.58405641397002
809.337,202.04733669215082
809.456,196.50195896167367
809.575,190.66567214028737
809.694,187.9540606435765
809.812,188.92729763171405
809.931,194.12737444669145
810.05,211.9698755040929
810.169,228.77861032772796
810.288,245.6124533764712
810.406,254.94672932564737
810.525,254.50351609733445
810.644,251.8672292759481
810.763,253.5478255714449
810.882,257.2015820401019
811.0,260.3964640498846
811.119,267.5731642414853
811.238,286.37150945473127
811.357,300.75773345585594
811.475,310.10845962148306
811.594,320.8652463931708
811.713,324.202985545811
811.832,330.2688632265897
811.95,329.48365865628637
812.069,336.38330257083135
812.188,345.323639126069
812.307,353.8094302267613
812.425,352.78353301576544
812.544,356.39832844546225
812.663,349.18888145091677
812.782,345.36298423992116
812.9,345.83405672589515
813.019,354.5293716361116
813.138,364.4056389272802
813.257,379.24554258208514
813.375,385.4300349814788
813.494,399.92102088736584
813.613,410.1539981352443
813.731,404.4363260324735
813.85,407.79830760935636
813.969,405.94297316892334
814.088,409.1984612393128
814.206,409.1621744179275
814.325,405.8566235272781
814.444,414.7311592167152
814.562,422.70699360745095
814.681,426.4681093834679
814.8,432.81277494303436
814.918,427.7531114982718
815.037,421.2241839842452
815.156,411.7627889377513
815.274,400.6598354496988
815.393,390.253851658616
815.512,388.27211029177533
815.631,390.0470788816446
815.749,396.1744284238949
815.868,398.27320653757374
815.987,405.86289374216176
816.105,402.0924077865767
816.224,389.4353417444114
816.343,366.5921285160989
816.461,343.3506468895181
816.58,312.12474967852177
816.698,297.9871641558375
816.817,284.86343144700606
816.936,280.2349368334126
817.055,271.64713486051187
817.173,262.1831424114206
817.292,255.83170407488325
817.41,255.0958501539302
817.529,249.79376246674303
817.648,251.54795183583275
817.766,258.8224875252686
817.885,265.2069799246609
818.004,279.15424288682357
818.122,284.6651422126226
818.241,288.056561018941
818.359,300.39431064634937
818.478,301.6961173172624
818.597,283.10705088579397
818.715,296.16625972357946
818.834,309.55477050237914
818.953,427.5263228148317
819.071,564.806594967824
819.19,705.2961206807616
819.308,816.1358295360004
819.427,849.8255985848625
819.546,786.5516877257655
819.664,678.2740969769562
819.783,532.0418705415926
819.901,445.53003512544615
820.02,364.42893723947145
820.138,313.3582533456171
820.257,281.49855951424155
820.376,248.2969047274878
820.494,223.91516336064757
820.613,218.4217336821191
820.731,221.22700530229184
820.85,220.67470116488875
820.969,238.32672603181456
821.087,265.6064565264461
821.206,300.8602129951036
821.324,310.6282551780468
821.443,315.20149216618495
821.561,306.2076295872235
821.68,274.4631176576127
821.798,244.3584325678286
821.917,225.98448340878042
822.035,213.60707104626903
822.154,213.45043790453673
822.273,214.50765757665718
822.391,216.22548330938366
822.51,211.84807094687204
822.628,194.8888404025422
822.747,191.79021591881826
822.865,195.17730572080856
822.984,196.70638686479
823.102,200.81815199145518
823.221,212.59225478045784
823.339,222.64860865171147
823.458,228.23136944937193
823.576,221.9063380392402
823.695,222.5839040317059
823.813,213.21298517568687
823.932,202.9693390469405
824.05,190.66075785325893
824.169,192.97988228728303
824.287,196.6409980632985
824.406,197.43458137178158
824.524,201.11214736424742
824.643,204.0407956077955
824.761,185.17074255264234
824.88,183.87038646718597
824.998,186.04362345532263
825.117,191.87313749973643
825.235,191.93901518051376
825.354,196.25337770977598
825.472,197.84306491436286
825.591,200.1825356687333
825.709,188.38520988630728
825.828,191.01558973158677
825.946,184.5585236894205
826.064,177.12656587236245
826.183,173.9292400899366
826.301,178.6565896321861
826.42,176.65233744283398
826.538,184.0376956430921
826.657,186.95378977408598
826.775,186.69585793105367
826.894,180.2370602871553
827.012,164.13930160429572
827.13,150.63375071364408
827.249,145.65547255026527
827.367,140.20533291502505
827.486,143.2400417646334
827.604,150.4176077570991
827.723,169.65058500497622
827.841,185.70260987190102
827.959,196.5953273795185
828.078,207.42743882653002
828.196,221.48725590124735
828.315,229.99555782444946
828.433,224.2319982757902
828.552,216.97926123795355
828.67,209.35855883215146
828.788,187.1378564263493
828.907,154.2860787379479
829.025,118.47420490840437
829.143,85.4854178706029
829.262,58.6057369280719
829.38,38.16434897942615
829.499,28.861243505467826
829.617,26.559167504234992
829.735,32.783687728069665
829.854,27.96992757129829
829.972,35.443168819545505
830.091,46.16139279449949
830.209,60.4214691030018
830.327,81.13510791272202
830.446,99.83175970816579
830.564,126.76609816001678
830.682,152.08655030921418
830.801,160.335267459373
830.919,154.6378531069937
831.037,135.909535870379
831.156,111.08719640194683
831.274,91.62835193474692
831.392,75.14232511362971
831.511,75.74002754503005
831.629,86.4287649917718
831.747,90.18591310171045
831.866,90.46481924542533
831.984,90.4628670485985
832.102,94.10745555697096
832.221,93.74113363333782
832.339,90.8888848824366
832.457,94.18107137389086
832.576,92.24954759663498
832.694,81.99255864333944
832.812,77.47077894233367
832.93,71.83432629259912
833.049,68.57422680366379
833.167,59.54618956422249
833.285,55.9615717115069
833.404,61.739281188774854
833.522,66.38975942929332
833.64,77.8797611235696
833.759,99.4280620955321
833.877,118.59277158240272
833.995,142.93689938816397
834.113,162.86466095206384
834.232,174.77077749431862
834.35,187.5097944694739
834.468,187.02716642298392
834.586,184.3410751730309
834.705,188.48442115251515
834.823,178.96802687225932
834.941,160.74773648810745
835.059,149.91272748923706
835.178,133.26386567651377
835.296,133.68859693738347
835.414,131.83367451859942
835.532,140.74498586604912
835.651,154.83032318752475
835.769,160.6489938423337
835.887,169.49796752744567
836.005,190.2776771432936
836.124,203.63314433489904
836.242,231.62757256546547
836.36,250.65923023326133
836.478,271.0856930958624
836.596,286.97449362080107
836.715,300.9342898167354
836.833,316.79625051483424
836.951,329.33613329085523
837.069,325.44831043917054
837.188,329.0799681069665
837.306,331.7800240431606
837.424,345.9077856070604
837.542,351.34896708438
837.66,359.2723996439508
837.779,367.5412867489761
837.897,377.47857212239967
838.015,373.5933466733122
838.133,368.12716884327256
838.251,367.95709490933683
838.369,373.4129950013751
838.487,366.35720678172515
838.606,367.4512021118588
838.724,366.84130133809634
838.842,372.45304558597877
838.96,367.43881580788707
839.078,355.31549512070444
839.196,361.734165775513
839.315,367.687035564521
839.433,372.7706412842648
839.551,371.0758920256536
839.669,366.5369869228864
839.787,366.2803329023701
839.905,356.9786572368321
840.023,350.28477377908615
840.142,354.713834044284
840.26,351.4060977726854
840.378,344.2273658300911
840.496,336.10404514290826
840.614,330.9573478323488
840.732,331.69203580317446
840.85,329.89252463980114
840.968,331.5068662902805
841.087,338.44155426110626
841.205,346.349402405092
841.323,351.73170942353636
841.441,371.7616354895996
841.559,385.13268709678846
841.677,397.1314443316829
841.795,405.6254396618157
841.913,417.06142633393983
842.031,437.56321387186506
842.149,455.50742565221464
842.267,469.12436470529155
842.385,481.48329510035967
842.504,494.1729614261636
842.622,496.2418485311882
842.74,493.13670966218683
842.858,490.2826530442675
842.976,487.1056527034043
843.094,485.17453980842856
843.212,480.17243124245726
843.33,479.58330968947314
843.448,487.4712444135454
843.566,494.0388328172713
843.684,501.07049048506644
843.802,510.8848321355455
843.92,519.3597798466303
844.038,534.465896388884
844.156,533.0170345761592
844.274,536.89284808811
844.392,535.3574061888054
844.51,540.8081114756478
844.628,539.2752669789405
844.746,529.8333315731421
844.864,507.4961580721057
844.982,478.8490278611125
845.1,442.2062266544485
845.218,411.75390163826114
845.336,375.8331783536755
845.454,359.2821520387869
845.572,337.25493524770764
845.69,310.3593201882301
845.808,288.8714973365446
845.926,270.3975272987118
846.044,258.3884923258141
846.162,245.8720980455572
846.28,214.68643969603613
846.398,196.79601944175303
846.516,175.01295849482943
846.634,148.0576031756115
846.752,138.88839504254076
846.87,125.57892716921029
846.988,119.4962991227197
847.106,111.55825982081782
847.224,97.32151922021464
847.342,95.82676996160274
847.46,93.22650833493874
847.578,78.22003605725251
847.696,78.12694194929938
847.814,76.12595675016179
847.932,86.95278861508484
848.05,93.52003653538927
848.168,113.89727691855835
848.285,137.2487259259002
848.403,146.64968968899785
848.521,152.4401906884611
848.639,150.77614623337865
848.757,156.7623182285125
848.875,167.4393993145555
848.993,179.0299003140184
849.111,197.51131040439049
849.229,221.35202785406995
849.347,230.8343037453078
849.465,240.34948006944614
849.582,231.1027516316796
849.7,236.15385869174833
849.818,239.49933804618917
849.936,242.38421134002397
850.054,242.6240629888371
850.172,253.78166355539918
850.29,259.2492208319179
850.408,266.23799022964886
850.525,264.09429209491225
850.643,278.188689198271
850.761,284.05451487305834
850.879,279.91168253918795
850.997,273.5913610278286
851.115,267.5870568324867
851.233,270.1481206025128
851.35,273.69186835522265
851.468,285.342109614426
851.586,320.04949373077204
851.704,357.1681332583735
851.822,397.48937018857237
851.94,446.6426417508059
852.057,493.594181711308
852.175,540.6097909358795
852.293,580.7353568704077
852.411,624.5968535408667
852.529,671.5509909039665
852.647,714.100799262737
852.764,750.7527721236722
852.882,786.5337493136119
853.0,807.9389689277938
853.118,808.842889840677
853.236,801.3589319656814
853.353,786.6464026621145
853.471,759.3104967351707
853.589,724.6940713277073
853.707,687.9218017643998
853.824,663.8811339326941
853.942,635.5815916421138
854.06,609.4205774900618
854.178,589.409346887793
854.296,570.1375102249182
854.413,535.1972752936449
854.531,491.1063910117224
854.649,435.5289266432197
854.767,387.38263110588605
854.884,328.32204985426694
855.002,270.09956384074343
855.12,217.6095453596875
855.238,180.69008964919436
855.355,142.78188934995657
855.473,115.21568039271
855.591,88.98251112129017
855.708,72.31428491269435
855.826,49.38757202639991
855.944,28.587174856603596
856.062,16.421868614273546
856.179,11.017533198853256
856.297,2.83974796991248
856.415,-1.3047034271035416
856.532,-7.558548772172909
856.65,-13.329593572016627
856.768,-26.115988876032667
856.886,-33.07712657247174
857.003,-37.843794491395116
857.121,-39.018633210924705
857.239,-36.86417712011111
857.356,-36.19748812540895
857.474,-35.461242329206115
857.592,-32.34918376343175
857.709,-28.931152834500125
857.827,-27.256723570990047
857.945,-24.479379348131395
858.062,-17.293461786778767
858.18,-2.1586748934300877
858.298,0.3000728976905682
858.415,4.03974657791561
858.533,2.0705283535601358
858.651,1.4991630785542647
858.768,-3.2926264470316315
858.886,-1.1930217671406984
859.003,-6.7737381386552915
859.121,-6.759860631280558
859.239,-19.108116065711606
859.356,-23.244143616747102
859.474,-28.647197353912926
859.592,-27.772759934643297
859.709,-19.23735292329262
859.827,-15.28063060178194
859.944,-19.60015036496777
860.062,-20.101214153889188
860.18,-20.23023677859799
860.297,-14.315338925358638
860.415,-8.149903456391357
860.532,2.826907207863824
860.65,14.088576623382195
860.768,19.196160054606963
860.885,24.9463434621641
861.003,31.33692061637009
861.12,38.782512631385345
861.238,42.00544841410104
861.356,43.685657927953784
861.473,49.91391938985858
861.591,58.22270033228288
861.708,55.24494247019233
861.826,59.89976891933649
861.943,56.326169165432084
862.061,44.37702718028979
862.178,36.55676706045358
862.296,26.274515819368055
862.414,25.05600217376381
862.531,28.617216582043138
862.649,30.44103462090349
862.766,42.45080400113463
862.884,45.32333864803437
863.001,44.58401889883105
863.119,48.24214001515719
863.236,50.33353706262653
863.354,53.998094283256194
863.471,56.25485929609377
863.589,69.93500093230803
863.706,76.51384386722358
863.824,86.44506775452011
863.941,88.33559900112394
864.059,96.05729907889656
864.176,104.31579569346562
864.294,96.64701958076196
864.411,94.14101403082873
864.529,93.26444571033255
864.646,86.96103756299658
864.764,88.32429608232711
864.881,86.88149399559708
864.999,96.12527199544714
865.116,114.04004566629285
865.233,134.25178903410824
865.351,164.43322937162066
865.468,188.62679092125418
865.586,201.80649965703486
865.703,206.62776683437394
865.821,199.18583054850967
865.938,190.10753062628174
866.056,183.58161165643503
866.173,180.86521649611234
866.29,184.9514187383873
866.408,189.27311881616015
866.525,193.0545591536732
866.643,193.71998217516898
866.76,192.54038355164295
866.878,193.1720403393723
866.995,176.68075340415797
867.112,174.7383842178612
867.23,177.75272498827428
867.347,179.04412203574356
867.465,188.26538921308293
867.582,197.34639665016246
867.699,199.40229586213374
867.817,206.82183143774154
867.934,199.10716787915015
868.051,214.27042639848077
868.169,221.18866327278982
868.286,230.49391313411195
868.404,243.45803745430845
868.521,258.89056004290313
868.638,284.79927310768835
868.756,316.14521560970286
868.873,338.14656936712856
868.99,368.96523914187026
869.108,399.4263331590362
869.225,428.7099379987128
869.342,454.70003634488296
869.46,493.781909582828
869.577,531.2707092276994
869.694,557.5724958855578
869.812,558.9902998594337
869.929,566.9959826211882
870.046,572.4882454695231
870.164,565.3865689239186
870.281,553.3870568804787
870.398,550.6230426725365
870.516,546.5733141788801
870.633,540.0534558150936
870.75,507.9405238582334
870.867,485.59469146847266
870.985,468.8124954423482
871.102,448.03116521708967
871.219,422.402215944212
871.337,404.0234831215507
871.454,398.71834337248265
871.571,385.6772728874838
871.688,354.0924794587621
871.806,319.64621416856863
871.923,300.5826328610592
872.04,279.657579692078
872.157,252.27884686941735
872.275,234.72349067013334
872.392,220.26423836695346
872.509,212.15217221095975
872.626,193.8418376566977
872.744,171.79816976910217
872.861,158.5493070763119
872.978,146.524686807764
873.095,124.10959034874
873.213,110.40271899794104
873.33,93.8672762185706
873.447,87.2435217508885
873.564,73.7496374130765
873.681,59.893848313359776
873.799,44.64818987185515
873.916,35.340366402797976
874.033,20.537043174559273
874.15,16.452629791184435
874.267,14.441091950708206
874.385,13.11409014758984
874.502,9.992261238515795
874.619,9.677591001009034
874.736,5.446948140386107
874.853,4.345822010041234
874.97,1.123595813655827
875.088,3.696431090168372
875.205,6.75463580109568
875.322,5.417722913568706
875.439,0.075219109996715
875.556,3.5094439042379473
875.673,2.27333756266198
875.791,-2.2799468191862915
875.908,-3.4866044762251236
876.025,-6.614099730728536
876.142,-6.9112258209610715
876.259,-7.182666869941372
876.376,-11.037684844458703
876.493,-9.170758012603882
876.61,-6.219029830901543
876.728,-5.546019981784082
876.845,2.7515217434212134
876.962,2.361012424867043
877.079,5.286167151527799
877.196,8.99921168682183
877.313,8.907455088127938
877.43,5.347614150904249
877.547,4.701929970948509
877.664,1.922930163932613
877.781,5.668878039296935
877.898,6.115765918345076
878.016,2.84710380260994
878.133,0.46416144388917147
878.25,-4.985433388580058
878.367,-13.234450939109625
878.484,-10.192980945691998
878.601,-11.118363216661663
878.718,-4.812817708867285
878.835,0.010775278639059138
878.952,0.6650236352997814
879.069,7.264422323287064
879.186,3.918556108527629
879.303,2.898675159088261
879.42,7.526745018589188
879.537,-6.997788171423563
879.654,-12.519742350165284
879.771,-21.35553621748649
879.888,-31.93348491322797
880.005,-33.91712114853734
880.122,-32.45852114537107
880.239,-27.557684903729175
880.356,-19.21461242361162
