wavelength_nm,intensity
792.446,263.42439687952555
792.565,229.06863930376804
792.684,198.77738389251266
792.803,172.55063064575944
792.922,150.38837956350818
793.041,118.9173838925126
793.16,108.54162631675507
793.279,117.11998129511005
793.398,132.98837956350832
793.518,153.88275185788055
793.637,191.61781679294546
793.756,223.1165180916467
793.875,247.8290722042007
793.994,245.31218908731753
794.113,231.05591203104046
794.232,206.50526268039113
794.351,180.8308038059323
794.47,161.58837956350806
794.589,155.94249211762065
794.708,157.23599861112714
794.827,158.00482977995836
794.946,160.16413713926568
795.066,160.8827518578804
795.185,158.56153973666838
795.304,164.8784228535515
795.423,157.55028432541292
795.542,147.06370423883286
795.661,137.39963497476356
795.78,125.88102025614893
795.899,113.21348778861643
796.018,108.00136657649524
796.137,105.62560900073774
796.256,106.33296830809701
796.375,102.1121890873178
796.494,94.52257869770743
796.613,89.00223237736111
796.732,77.30612848125722
796.851,72.30266527779392
796.97,76.64638822151684
797.089,89.27149644662506
797.208,108.19184276697135
797.327,135.64292501805363
797.446,146.93296830809692
797.565,157.9269077020363
797.684,154.2204141955428
797.803,148.61608519121376
797.922,137.37019774532638
798.041,126.64985142498008
798.16,118.28708086220954
798.279,110.26889904402779
798.398,98.75461332974207
798.517,99.67149644662518
798.636,99.67322804835673
798.755,109.37798995311857
798.874,119.01695099207963
798.993,114.59011116523969
799.112,113.09833627346481
799.231,115.29140986653849
799.35,114.41262198775061
799.469,107.59184276697141
799.588,108.40482977995839
799.707,118.07842285355144
799.826,118.75807653320513
799.945,102.88881246394106
800.064,101.57279514792376
800.183,111.81262198775066
800.302,114.44985142498012
800.421,120.55115012627878
800.54,133.81954839467704
800.659,145.37972155485022
800.778,149.4663016414303
800.897,150.8663016414303
801.016,154.96933194446058
801.135,158.41695099207956
801.254,156.89314146827002
801.373,169.77539255052108
801.492,169.59357436870283
801.611,172.9269077020362
801.729,178.24898562411414
801.848,185.03686441199295
801.967,173.7546133297419
802.086,157.51651809164667
802.205,133.7953059704346
802.324,115.01089038601907
802.443,80.65690907258787
802.562,55.033631493283394
802.681,37.09953709407131
802.8,22.266117336958253
802.919,4.317972300451269
803.038,-2.727321818323991
803.157,-10.34181187812787
803.276,-10.881674518425433
803.394,-12.593030791542507
803.513,-8.656752457614576
803.632,-5.3530156705025975
803.751,0.18023937629725495
803.87,-4.329697771467349
803.989,-8.275750703131171
804.108,-17.141266600991578
804.227,-22.77534554182393
804.346,-26.903705838602626
804.465,-22.738128833111883
804.583,-16.865137291347057
804.702,-6.719037887201195
804.821,-8.511915916858044
804.94,-0.07241028296222796
805.059,4.642394910605944
805.178,14.760059396243946
805.297,16.81275113888726
805.416,30.445328742519386
805.535,39.419304524006684
805.653,45.91763327935767
805.772,46.733851817122016
805.891,56.67174768333803
806.01,71.67378836881386
806.129,100.7582324471733
806.248,131.80496948217908
806.367,172.7618332145379
806.485,205.33359348095382
806.604,230.32353556555154
806.723,245.1212698579415
806.842,246.07571410704162
806.961,244.96002848601165
807.08,237.5967238173628
807.198,225.97973949503432
807.317,208.63807984803066
807.436,195.4297535343603
807.555,185.4127692120319
807.674,188.8434039373225
807.793,197.1207919093663
807.912,228.1124655956957
808.03,268.5119314898174
808.149,312.990185262727
808.268,347.9221186893161
808.387,375.2618443236974
808.506,385.30546606197476
808.624,376.59324364440783
808.743,347.12950607532593
808.862,324.7679330084084
808.981,299.1163166514477
809.1,272.53915916894584
809.219,251.67368999813212
809.337,234.72164074073834
809.456,234.51331442706743
809.575,235.07555088395912
809.694,236.61267911574248
809.812,243.152404750123
809.931,254.69386198623505
810.05,270.38077376780154
810.169,287.8070794887618
810.288,294.6507012270382
810.406,309.56531863631034
810.525,312.7959533615997
810.644,306.7036443639454
810.763,309.4615518165075
810.882,326.896515546126
811.0,342.58602473029
811.119,358.62445166337193
811.238,376.9208872544626
811.357,388.984422412653
811.475,390.27306579595165
811.594,388.86300788054905
811.713,402.9057638179602
811.832,418.55284875970034
811.95,413.7332670347739
812.069,408.9968021929644
812.188,414.2369607277783
812.307,413.0459504314234
812.425,411.04865345286237
812.544,409.9889158119996
812.663,418.87653106628403
812.782,419.7821317266971
812.9,417.68840177592296
813.019,425.1780251966452
813.138,439.546240084102
813.257,451.65798150322837
813.375,473.0786174193926
813.494,486.9905528536036
813.613,500.3128025394892
813.731,497.3018788232215
813.85,504.89268670868535
813.969,514.8912868019413
814.088,514.3660773713876
814.206,511.3993094992756
814.325,522.714792709415
814.444,524.9324404217188
814.562,527.5474907314251
814.681,523.6768267554172
814.8,530.841660614907
814.918,532.2030312709336
815.037,523.5929733555314
815.156,514.8019630591768
815.274,508.46722981909943
815.393,505.267561514087
815.512,508.1631313043125
815.631,507.68986992570706
815.749,509.4486431791363
815.868,512.5520051771543
815.987,518.2519039717093
816.105,513.7717161861776
816.224,493.08806519718286
816.343,481.0070116107853
816.461,454.69738659581617
816.58,423.30551049859577
816.698,384.9145002022411
816.817,365.16071934311583
816.936,356.9368086138607
817.055,341.3795645512723
817.173,319.36084862721214
817.292,310.77330153432086
817.41,296.9632436189188
817.529,299.54279609312715
817.648,298.68425332924033
817.766,311.2612084008514
817.885,322.14465697895605
818.004,322.39866832762345
818.122,322.9816840052953
818.241,323.32920184746916
818.359,328.5064382777241
818.478,338.8015282744101
818.597,322.68431795204464
818.715,339.4919929999695
818.834,349.98540375838803
818.953,472.673663831486
819.071,630.0021073877997
819.19,791.2097944825654
819.308,914.411710769331
819.427,948.5317951406647
819.546,874.612053396479
819.664,745.3407382710261
819.783,568.2148211099934
819.901,479.49035266732653
820.02,400.2491224373265
820.138,350.1374288913007
820.257,316.59890992632995
820.376,284.96028058235686
820.494,255.9761966929293
820.613,232.71938553077473
820.731,230.96993367597943
820.85,248.6533822540847
820.969,276.07535897071807
821.087,309.8453876354033
821.206,350.9729920576642
821.324,374.4114189907475
821.443,378.8264693004543
821.561,368.2640304326721
821.68,345.6808123441107
821.798,315.3633951213502
821.917,282.123034175646
822.035,259.4437121909807
822.154,241.0232646651898
822.273,238.38203791861977
822.391,234.25942589066455
822.51,239.9922251181207
822.628,235.95446157501408
822.747,244.2301179453272
822.865,253.23737604724192
822.984,260.94246964699187
823.102,254.0986454978238
823.221,259.0582845521188
823.339,257.1711703596606
823.458,266.71176179490817
823.576,258.7406649184675
823.695,266.5955420680008
823.813,273.15344952056444
823.932,270.6464219081929
824.05,253.6822514386787
824.169,245.66440131548484
824.287,244.1071572528972
824.406,242.04861448901113
824.524,241.37362150867494
824.643,244.46572809543844
824.761,248.87904680341416
824.88,248.236088455113
824.998,246.04680976049158
825.117,249.653202061541
825.235,251.4639233669193
825.354,247.6079780056308
825.472,248.34250883481835
825.591,237.79652018348642
825.709,241.35356183518485
825.828,240.35562513190507
825.946,241.05985293078993
826.064,238.2116997772938
826.183,237.8267500870012
826.301,237.92405147895977
826.42,231.21009745966288
826.538,221.47709582131847
826.657,223.84712448600436
826.775,225.5201834537204
826.894,223.82960605779988
827.012,215.93902866187918
827.13,213.0242088417159
827.249,207.32064443280805
827.367,195.99976400658414
827.486,185.49187059334722
827.604,181.21774341387646
827.723,191.20855129934068
827.841,195.17425095969656
827.959,210.384972265074
828.078,235.51690569166357
828.196,254.7328218022359
828.315,272.25436561843594
828.433,278.9568618155881
828.552,273.1017822551646
828.67,253.35406200210048
828.788,220.54140668410122
828.907,188.00793644304036
829.025,146.7019031553721
829.143,108.0134559700532
829.262,77.99331812717193
829.38,58.40260422378681
829.499,49.813112902608346
829.617,38.0039093374201
829.735,39.29339362842701
829.854,42.17719729887172
829.972,45.73973565818335
830.091,59.163824368232504
830.209,77.54531435352433
830.327,115.4940211295077
830.446,162.22630283500905
830.564,192.34324061816602
830.682,218.74649016526422
830.801,230.75522481749314
830.919,219.80292050868303
831.037,194.28351663277337
831.156,164.0948486875996
831.274,149.03345346969866
831.392,128.64911452885406
831.511,128.27083619407017
831.629,131.18000374673204
831.747,138.78873839896096
831.866,140.0719319256487
831.984,150.9239566211676
832.102,159.24524538595054
832.221,158.84884283516334
832.339,139.76899639951836
832.457,139.22720006941293
832.576,125.06855803129326
832.694,117.05009635596623
832.812,107.05679740644118
832.93,107.74399518154725
833.049,103.25969241934041
833.167,90.96903669993912
833.285,80.1471465912541
833.404,82.28361349529942
833.522,91.16036612393604
833.64,102.87591292311424
833.759,119.14750657503805
833.877,148.09872169720472
833.995,170.99416709478828
834.113,194.8106615469767
834.232,221.0964200684292
834.35,241.14062014832348
834.468,245.1086297520274
834.586,244.40650948560153
834.705,240.2810125957992
834.823,231.3693685198497
834.941,213.4897590759349
835.059,193.8595002813708
835.178,185.06647092403597
835.296,174.3470346402942
835.414,169.6985940275481
835.532,181.98521834986673
835.651,192.2986824990253
835.769,208.58530682134398
835.887,223.3992038709353
836.005,244.3663476737733
836.124,264.37158671470655
836.242,281.84349242230644
836.36,305.9032769177852
836.478,328.6176068678095
836.596,343.98907967497706
836.715,364.68263040422266
836.833,376.53722009450746
836.951,391.7355327285152
837.069,398.74942977810747
837.188,411.81440907878186
837.306,419.88977798984587
837.424,422.751294087057
837.542,426.47514784660575
837.66,428.9375297446828
837.779,435.2345436773918
837.897,431.72549700404034
838.015,435.0493507635894
838.133,441.6476633975973
838.251,441.72389810952734
838.369,442.9793536006782
838.487,441.47117272819287
838.606,440.4296585223743
838.724,443.6539451823566
838.842,439.8340759981831
838.96,438.81247521227783
839.078,441.89909953459744
839.196,443.950226021419
839.315,447.00914471603267
839.433,435.5104876530704
839.551,432.46724184551954
839.669,431.0698834838561
839.787,437.2396246892923
839.905,438.81715810252075
840.023,444.61633653739426
840.142,447.5505799073327
840.26,442.63200942445746
840.378,423.2415774697208
840.496,416.8935697574084
840.614,413.6537871533209
840.732,420.6391127743417
840.85,422.7309319018558
840.968,427.5396341462531
841.087,436.650500892815
841.205,444.29902997703937
841.323,445.5103296240341
841.441,455.2385123879118
841.559,468.8264354115297
841.677,488.9641419849314
841.795,502.6637533202378
841.913,521.9148798070593
842.031,538.2447941726688
842.149,544.2829336465032
842.267,556.4907700900347
842.385,568.1115935465533
842.504,577.3194299900849
842.622,583.9532404595907
842.74,589.6208171628627
842.858,592.68319906094
842.976,587.4009922144287
843.094,574.0391316882635
843.212,580.5422062270336
843.33,581.5578348783579
843.448,584.6557146119333
843.566,584.4020791939938
843.684,595.989136416747
843.802,602.112990176297
843.92,611.949398048401
844.038,627.7581002927991
844.156,641.967668338063
844.274,643.7045091105997
844.392,648.1236009653875
844.51,642.012822690305
844.628,636.9020444152226
844.746,619.2466773955514
844.864,597.4138211983909
844.982,575.6727398930052
845.1,535.1714854274464
845.218,494.0719625636193
845.336,457.5836951110475
845.454,426.28850125154923
845.572,399.3915757903192
845.69,374.04529967973843
845.808,352.6340885042225
845.926,336.2618383676675
846.044,317.2056055471296
846.162,307.39872337594227
846.28,273.94595375886746
846.398,250.37370362231204
846.516,227.00751409181734
846.634,200.58504750504557
846.752,181.62751598320887
846.87,167.3106771020649
846.988,152.7877776148603
847.106,145.23284349562107
847.224,115.07003549841605
847.342,103.3927076334194
847.46,89.17054631176585
847.578,85.09893140603432
847.696,85.29540228003799
847.814,93.6728179619841
847.932,101.02247402759083
848.05,109.26085584684084
848.168,118.17422732856991
848.285,131.5877187669867
848.403,141.17051078985241
848.521,165.78447164388683
848.639,184.68068358017229
848.757,207.27992581948808
848.875,219.1112026908385
848.993,224.9424795621889
849.111,232.74691660669956
849.229,246.12624542610206
849.347,252.99388593381622
849.465,259.50308488308895
849.582,264.1438855639634
849.7,271.05568191583376
849.818,276.65752155774726
849.936,285.83685037715
850.054,288.0127159930896
850.172,303.5626075830552
850.29,306.54886280938445
850.408,298.5983214989172
850.525,302.7923689330387
850.643,316.18468476542876
850.761,333.0211564419744
850.879,341.14420820509997
850.997,340.20492230588786
851.115,345.59377493481406
851.233,337.16964055075323
851.35,331.80524642643263
851.468,343.9516748129347
851.586,370.3621724635059
851.704,406.6627134041204
851.822,450.18403356551414
851.94,506.46899009054425
852.057,566.6561111177389
852.175,615.5073014090026
852.293,677.5100068517816
852.411,735.4183400001884
852.529,791.867798689721
852.647,839.7882530502493
852.764,881.8524303545007
852.882,928.3261314682759
853.0,947.0838152660336
853.118,943.5904168127088
853.236,931.1775378399036
853.353,908.9975592999984
853.471,878.1985331410457
853.589,851.3241823067682
853.707,810.5701777928371
853.824,794.8620607247933
853.942,763.9392250420306
854.06,731.8363027791812
854.178,682.6589216418728
854.296,635.5585967816205
854.413,589.2011290642251
854.531,545.1267782299469
854.649,479.60221094545227
854.767,438.67937526268906
854.884,391.9141153375017
855.002,348.88824935170817
855.12,289.9948508983819
855.238,237.0841364277398
855.355,198.9309977146736
855.473,162.55881138255995
855.591,121.59472416555352
855.708,95.5280669580539
855.826,68.20477207220313
855.944,46.838474616685914
856.062,24.279180173507196
856.179,3.505657019960053
856.297,-1.8673438551772243
856.415,-5.381976742345062
856.532,-11.494036171671127
856.65,-20.80351325531528
856.768,-25.376225687317422
856.886,-28.161905674493315
857.003,-29.474864427936325
857.121,-36.02457995825307
857.239,-30.93331872715706
857.356,-30.184135277350187
857.474,-28.887199621531373
857.592,-32.16172900624868
857.709,-22.31125125349185
857.827,-18.274400949016474
857.945,-14.663831322885041
858.062,-9.19042972466868
858.18,-2.0496638626795125
858.298,0.9584274218045032
858.415,0.11041915895292864
858.533,-5.218742906495504
858.651,0.03410968145469351
858.768,-9.894824618780333
858.886,-13.276539962207956
859.003,-16.39742694414024
859.121,-19.585910186266194
859.239,-16.856310015655446
859.356,-25.64159231460717
859.474,-25.34152042184848
859.592,-25.539521835477576
859.709,-31.22086170754295
859.827,-31.382168515182478
859.944,-32.78546262227457
860.062,-29.0009292401932
860.18,-19.33244111305345
860.297,-14.149219885498427
860.415,1.0515425407629064
860.532,4.735282357865674
860.65,12.10018207073171
860.768,26.687647443354535
860.885,39.28384809730624
861.003,42.400965227848005
861.12,55.619188834848
861.238,61.08084405929816
861.356,62.90157108561016
861.473,68.46688685651117
861.591,68.85990825511804
861.708,72.98453138532685
861.826,67.80439261077387
861.943,57.71516292712998
862.061,54.89346571101855
862.178,44.706400529538996
862.296,30.567261338313628
862.414,36.07236196310918
862.531,36.11394725510747
862.649,31.87900791530363
862.766,27.801582586391312
862.884,30.20184080899211
863.001,38.91465445022712
863.119,42.097389911508614
863.236,43.08012457875713
863.354,53.02899878129287
863.471,52.56956347038722
863.589,62.389584503484635
863.706,75.42692155389804
863.824,90.37854431859726
863.941,111.28081643394586
864.059,119.54845651466243
864.176,121.67497105425335
864.294,113.33655052890919
864.411,94.77042437585953
864.529,92.48395190246366
864.646,89.48232791391635
864.764,95.66165630632159
864.881,105.38730504504728
864.999,115.89477196559116
865.116,133.2126284965245
865.233,147.33048502745783
865.351,163.4318913419408
865.468,180.63286475599068
865.586,203.98535332155572
865.703,229.32312327240206
865.821,237.75786292021806
865.938,237.83329520872672
866.056,230.8178184063264
866.173,218.01879182037624
866.29,215.4942241088851
866.408,219.45796808570572
866.525,220.08318392399815
866.643,224.81489326878415
866.76,230.14833421530176
866.878,229.06445914450347
866.995,219.06889576201695
867.112,219.0153237215217
867.23,218.88123220050716
867.347,225.7480064803584
867.465,223.17928292471186
867.582,228.577658936165
867.699,239.8123985839818
867.817,242.82635901101943
867.934,244.8333930311307
868.051,263.1971370079519
868.169,274.2128290367214
868.286,293.9705124074824
868.404,310.39659404664155
868.521,334.83739430051946
868.638,362.60806468426756
868.756,385.31120260048317
868.873,407.9701846725429
868.99,440.3746212900572
869.108,484.33057305908665
869.225,525.0449663865576
869.342,554.691827246496
869.46,595.7516751194215
869.577,633.602864983689
869.694,655.7847907786922
869.812,661.1095737165529
869.929,668.4845731046297
870.046,679.0058928390271
870.164,673.9973424435543
870.281,664.7532942125838
870.398,659.2997221720896
870.516,655.6089206943659
870.633,639.4375997361228
870.75,619.5866250982261
870.867,594.7529664776455
870.985,567.9487450865017
871.102,540.1220128728473
871.219,513.5221204860325
871.337,482.80274757973734
871.454,465.06086385093136
871.571,440.73196713511237
871.688,418.57882799505103
871.806,385.3096715389722
871.923,357.7504717928501
872.04,331.9116183670742
872.157,302.843327711861
872.275,269.9499288315395
872.392,253.33012302481103
872.509,234.62027392803918
872.626,219.15977548061804
872.744,204.92005625397596
872.861,182.46735001434718
872.978,156.685639445714
873.095,129.85198082513287
873.213,105.56204514827478
873.33,94.05998825929541
873.447,83.02979284217747
873.564,77.9675627930249
873.681,72.6861174213984
873.799,48.8831523023088
873.916,29.487993258677648
874.033,18.247414830221373
874.15,15.551614299424369
874.267,15.167672386114742
874.385,12.061133499902429
874.502,9.869265307905756
874.619,1.94285607879428
874.736,-6.410169782181488
874.853,-5.412652912593413
874.97,-6.837914417655801
875.088,4.004232869096506
875.205,5.9633995559495006
875.322,4.2664123551986695
875.439,-0.45918302294613955
875.556,-5.093597652027455
875.673,-5.611342851816614
875.791,-3.174891044729257
875.908,-2.522197162317156
876.025,1.1835091828061017
876.142,-2.2287146591335807
876.259,-7.0550341673878965
876.376,-17.056692998981774
876.493,-24.534599531838154
876.61,-25.508903175747914
876.728,-21.756594760715878
876.845,-7.934859062973784
876.962,-2.1030496615535696
877.079,11.3042150794128
877.196,16.31534511803381
877.313,15.960744833025387
877.43,11.923791504225052
877.547,7.045616411670711
877.664,-3.88158070769163
877.781,-7.923054530682949
877.898,-11.45003939511147
878.016,-10.661177864198898
878.133,-8.064996867022835
878.25,-1.5512736574247028
878.367,2.559819104086764
878.484,9.442793693046372
878.601,3.5374778749611164
878.718,-3.640951036697742
878.835,-9.080455476412618
878.952,-23.16274775840778
879.069,-21.90584681847849
879.186,-24.19467882004119
879.303,-18.26104177420178
879.42,-16.625368301277504
879.537,-20.949395316182603
879.654,-17.95393450238935
879.771,-20.218168279495174
879.888,-26.06189260729908
880.005,-28.778553262846728
880.122,-30.467474707153553
880.239,-31.12865694021957
880.356,-30.762099962044786
