wavelength_nm,intensity
792.446,273.4658871127801
792.565,223.92225074914361
792.684,182.34917715606997
792.803,148.7466663335591
792.922,123.11471828161082
793.041,94.32943689632947
793.16,91.4696966365893
793.279,100.10346287035557
793.398,115.8601728270655
793.518,136.6264065932993
793.637,171.27748884438145
793.756,202.07142823832083
793.875,221.3874455543381
793.994,220.6956706625632
794.113,211.35800832490088
794.232,194.861904428797
794.351,183.4324671993597
794.47,171.07922044611297
794.589,158.5796533465459
794.708,155.13549750239014
794.827,156.13030269719536
794.946,149.97619014308282
795.066,145.38831135520405
795.185,142.7380949049877
795.304,147.33896070585348
795.423,138.1658005326933
795.542,128.2393936062864
795.661,120.82554079243359
795.78,117.93636330325602
795.899,112.26277022966295
796.018,114.66796503485779
796.137,103.82207758897033
796.256,100.701731268624
796.375,99.89134165823441
796.494,87.16753136397193
796.613,83.02813716776039
796.732,73.09789715439987
796.851,70.64619962931613
796.97,73.12907446055134
797.089,68.62382511339645
797.208,76.7640935854563
797.327,94.75457902136773
797.446,108.29831044007295
797.565,132.2403102570466
797.684,135.16239665410677
797.803,143.4091583758422
797.922,139.96760840926584
798.041,127.61610173273266
798.16,110.32087211247651
798.279,96.23603210260998
798.398,90.6386379801895
798.517,94.05076766729294
798.636,93.30878480028392
798.755,104.74948591595884
798.874,110.30100954245623
798.993,106.1313210477415
799.112,100.39886199025634
799.231,93.69757176394005
799.35,87.5071040484464
799.469,102.11577053208697
799.588,110.88028117157188
799.707,117.2058307720958
799.826,118.02488686612627
799.945,107.19286070907452
800.064,108.87598606717417
800.183,108.93053999670235
800.302,107.89158743272394
800.421,123.1946262107368
800.54,132.41454810563283
800.659,137.9678033338621
800.778,143.46564730668013
800.897,147.72712764313445
801.016,155.90895429993498
801.135,157.10203636799082
801.254,156.30723964816787
801.373,166.50205331795547
801.492,168.85704014791622
801.611,177.69860706445692
801.729,185.52199216281593
801.848,190.6657235815211
801.967,180.10469309546448
802.086,161.25102191676706
802.205,130.59639181238865
802.324,100.57126102065789
802.443,72.72168969325647
802.562,52.98995305596161
802.681,30.299885334867255
802.8,23.975124365068034
802.919,17.53779963097576
803.038,13.797261023632329
803.157,5.436640793347706
803.276,-1.8553681076737085
803.394,-5.286723500364465
803.513,-13.68658047810417
803.632,-26.88649309470439
803.751,-25.52090082453454
803.87,-27.680974162809537
803.989,-21.29432327392208
804.108,-19.233671594431787
804.227,-17.168909878398967
804.346,-21.14568550326296
804.465,-14.89521945258993
804.583,-10.266755204879782
804.702,1.9936904473253603
804.821,6.110129140950465
804.94,6.194800043045408
805.059,1.203493952412647
805.178,5.712885808194
805.297,-0.79614451863084
805.416,9.23943715285122
805.535,25.029985095599518
805.653,36.57020494889977
805.772,38.82716138149793
805.891,46.24554981205075
806.01,63.46717819403031
806.129,100.76484420183104
806.248,133.55778069474104
806.367,174.61384853896539
806.485,212.81059423757412
806.604,231.72446168274462
806.723,246.53616462575033
806.842,254.09851691940526
806.961,250.26519821738913
807.08,247.9911868746801
807.198,234.38643960123528
807.317,220.17822912432737
807.436,208.56742124482227
807.555,199.17392938263333
807.674,203.71030765031463
807.793,212.80859067990076
807.912,232.86358366619677
808.03,258.6527757866919
808.149,286.39088565610473
808.268,315.6302942268161
808.387,337.33983266765733
808.506,345.37404643317393
808.624,340.3623727528029
808.743,326.6061103278431
808.862,311.5805838336191
808.981,295.7671785515161
809.1,277.9667602823999
809.219,262.4148268617686
809.337,242.10964668789043
809.456,225.31096002050572
809.575,215.58673222757977
809.694,214.1560109281603
809.812,223.6482333516845
809.931,240.25907049382334
810.05,263.2924184584729
810.169,284.2175413148975
810.288,289.61019663885463
810.406,294.87125023121
810.525,295.24658953785115
810.644,296.6383790609425
810.763,302.76783092169603
810.882,311.79684988201655
811.0,327.8977303141985
811.119,338.2644116121812
811.238,353.8458115248826
811.357,366.9241811345539
811.475,377.37138191305644
811.594,384.1432580162344
811.713,397.1307185349966
811.832,411.1865773221572
811.95,415.11343178031325
812.069,408.1277321259154
812.188,410.41475974424486
812.307,404.690531951319
812.425,399.77929117138
812.544,392.28363480702546
812.663,400.2174156721082
812.782,411.60660779260206
812.9,420.7083540256501
813.019,429.5936500422481
813.138,440.8174741973744
813.257,459.8845883957906
813.375,468.86339090589513
813.494,475.4698990437053
813.613,480.3603898654985
813.731,477.1158157522267
813.85,478.47643644414967
813.969,481.9461480451637
814.088,481.09464752496535
814.206,495.41024657186654
814.325,495.9847200776421
814.444,493.2501026743268
814.562,491.9986021541285
814.681,488.1652834521121
814.8,488.3709257890567
814.918,480.2146633640966
815.037,478.8055870863227
815.156,480.9584155704536
815.274,471.83591937925985
815.393,470.7021677768109
815.512,478.14590535185096
815.631,479.53769487494293
815.749,480.6870601556104
815.868,481.4546072544598
815.987,487.75289028404495
816.105,475.8780131404699
816.224,454.8646078583666
816.343,439.05293417799487
816.461,419.4100916664544
816.58,391.99755218521693
816.698,370.31055382952053
816.817,353.3231225733915
816.936,344.88980387137497
817.055,330.3984765113499
817.173,316.3305257747014
817.292,311.5101940856719
817.41,308.20414811092826
817.529,303.16823200631455
817.648,303.3695453389304
817.766,307.3128500135376
817.885,319.2613494933397
818.004,329.76569312898584
818.122,340.46311035770543
818.241,355.5025189284163
818.359,364.56264968320863
818.478,367.2600764180444
818.597,347.2673945008288
818.715,356.628087990278
818.834,364.52914639476705
818.953,482.80343237082593
819.071,616.8956951418697
819.19,787.1360229051381
819.308,924.8446652491867
819.427,997.733903533385
819.546,948.992199255047
819.664,834.7100745351751
819.783,659.6814456912214
819.901,543.0081861636535
820.02,408.8773072624888
820.138,341.53362510900064
820.257,295.1455550714654
820.376,281.3523493916865
820.494,259.26297008360973
820.613,253.27012757206967
820.731,260.3950339782784
820.85,271.25002696457364
820.969,289.4322926781416
821.087,318.28295666010797
821.206,344.71543882389244
821.324,364.26047510023136
821.443,363.03148540254443
821.561,362.1782532806151
821.68,344.39601682968134
821.798,315.70988427485156
821.917,295.58565648192643
822.035,273.70125552882814
822.154,257.0644736233487
822.273,242.55583024600787
822.391,234.28008730156745
822.51,240.17577292855572
822.628,235.85933734342285
822.747,240.36974158512976
822.865,240.78577353246442
822.984,241.7108963888901
823.102,242.47151708081356
823.221,243.69101223161152
823.339,249.4499013218035
823.458,262.1888769920822
823.576,266.3165972511057
823.695,274.3447504105619
823.813,266.97463517175004
823.932,260.4443467727651
824.05,248.85778131750314
824.169,241.45996045098576
824.287,231.33400105632975
824.406,226.13531438894654
824.524,226.19723378216932
824.643,226.7803652966042
824.761,223.77042321796563
824.88,222.46351144235734
824.998,228.09166460181405
825.117,236.4929779344307
825.235,236.77827395103014
825.354,241.62201152607105
825.472,247.2873941227569
825.591,242.84195420862034
825.709,240.21296451093406
825.828,232.583109012382
825.946,227.18788554846208
826.064,226.4099781018582
826.183,228.34462476780863
826.301,234.44810260259027
826.42,235.70742459321616
826.538,232.07324009033562
826.657,236.00269195109144
826.775,231.50010917981263
826.894,223.7473099583175
827.012,209.69321203552374
827.13,202.25469852831435
827.249,199.33393393885396
827.367,189.7638187000429
827.486,187.10279437032284
827.604,196.56644536527807
827.723,210.9331266632637
827.841,218.80889887034024
827.959,228.53142432416993
828.078,247.04529176934142
828.196,270.77647523182884
828.315,276.50246388912143
828.433,280.80247852043993
828.552,269.2219736712391
828.67,252.20770258827213
828.788,219.4878037996774
828.907,184.83212555720618
829.025,148.4753584723424
829.143,116.78164374468213
829.262,78.93158425588634
829.38,56.10899201990648
829.499,35.16458705185559
829.617,24.17213830890444
829.735,21.40642789215451
829.854,31.48410177966887
829.972,50.64813880626697
830.091,72.64757725891063
830.209,96.36640981554123
830.327,124.8141507695318
830.446,151.5133411152234
830.564,166.66627668192547
830.682,180.5626902407031
830.801,189.13356267393937
830.919,186.40400220674275
831.037,177.10128156638598
831.156,160.8461799736482
831.274,145.96077535060738
831.392,133.40870406089994
831.511,132.6644249789847
831.629,135.75910693603043
831.747,135.95335599264314
831.866,136.90171760336847
831.984,140.9409883050029
832.102,136.5291767555551
832.221,126.16110937376996
832.339,115.08942033908437
832.457,118.32993678647009
832.576,110.61383844365949
832.694,105.32209105367107
832.812,103.78169326564733
832.93,104.68553762988613
833.049,94.80076571817854
833.167,80.39309627304625
833.285,70.8118406282057
833.404,72.4534647513328
833.522,77.96508509100411
833.64,91.33100211016603
833.759,109.7469248722671
833.877,132.17424917995578
833.995,151.18028090991126
834.113,174.5984956790022
834.232,198.2359916569897
834.35,221.80595516744467
834.468,237.68327798525888
834.586,249.2904709329432
834.705,243.8206076035712
834.823,229.3247702482252
834.941,204.1267683907147
835.059,182.35906956350738
835.178,163.6156131605426
835.296,150.36393164935288
835.414,154.2022934282064
835.532,177.07009243649708
835.651,196.53702564392188
835.769,218.10266015004802
835.887,234.07522106310046
836.005,251.49366942204028
836.124,265.9242389931014
836.242,283.46822847758233
836.36,305.0797504295957
836.478,328.1492810396177
836.596,354.5001969310249
836.715,371.8086885800079
836.833,383.11371702552765
836.951,397.5728580251599
837.069,394.0276700204631
837.188,399.4045599378444
837.306,393.3225753963514
837.424,405.3202445345122
837.542,411.3837145384739
837.66,422.9502148454657
837.779,432.0310008667431
837.897,434.32563970187334
838.015,426.1111876279128
838.133,425.9659996232165
838.251,422.97925317696206
838.369,434.99943313763424
838.487,430.32264340133673
838.606,433.6051610243468
838.724,435.25737561705375
838.842,425.86456856473916
838.96,420.0708957115588
839.078,415.4174825986381
839.196,420.4445889662369
839.315,425.19290745504765
839.433,420.15507875771107
839.551,416.68608122920574
839.669,417.7296378132545
839.787,410.0935407176496
839.905,404.3734609380622
840.023,406.0204807255743
840.142,412.62161306719895
840.26,412.26949865557685
840.378,414.1814535080236
840.496,411.1098585769206
840.614,413.77246278001655
840.732,407.5380972861429
840.85,403.70806079659815
840.968,406.1983706274
841.087,410.28694885647025
841.205,422.69500760502115
841.323,430.0597763102819
841.441,433.7656705566683
841.559,446.6646383961282
841.677,455.46403913602137
841.795,460.4262104386851
841.913,474.5130570660242
842.031,497.4423279357876
842.149,526.9551485891008
842.267,535.6506532250978
842.385,551.2102271251642
842.504,556.5706668260964
842.622,559.6627082586303
842.74,554.2066977431124
842.858,556.3480898249969
842.976,557.5708671882667
843.094,554.486285244177
843.212,552.6882833866673
843.33,555.958679797556
843.448,560.1407645201328
843.566,567.1418968617577
843.684,576.7404318007851
843.802,588.6013044021499
843.92,594.3747311160689
844.038,599.1351708170005
844.156,615.0609784833002
844.274,629.5668727296866
844.392,638.125580828887
844.51,625.573466417265
844.628,609.2897502740411
844.746,589.1748652996484
844.864,559.6920149572902
844.982,535.90440271017
845.1,506.4380025842622
845.218,485.3698708566228
845.336,451.6792283064726
845.454,408.2682394359763
845.572,378.26590857413794
845.69,355.77353442225626
845.808,333.8984762876905
845.926,326.5480934778
846.044,303.9241175943167
846.162,297.1070681177598
846.28,275.14369829488265
846.398,249.4469951386722
846.516,232.08795432012403
846.634,213.19298276564516
846.752,193.41143112458627
846.87,173.5071572855449
846.988,147.8362133966737
847.106,130.8943571766594
847.224,114.09194368961442
847.342,104.93487772602928
847.46,107.04279562095456
847.578,110.80880551374099
847.696,120.89732284587527
847.814,125.09082360773269
847.932,131.64016852543443
848.05,130.52890738253032
848.168,137.63409645607643
848.285,142.7895019798392
848.403,154.40118455987897
848.521,163.96784549489684
848.639,175.94489604030434
848.757,195.5773578411231
848.875,216.76566379778603
848.993,226.38687018734947
849.111,242.03491640375273
849.229,249.2240881612817
849.347,259.9656408711917
849.465,257.1643364382444
849.582,257.57948222174747
849.7,266.49506090568343
849.818,283.88942746840723
849.936,294.81626156359874
850.054,301.0019701176649
850.172,313.1591072431596
850.29,320.10325735566744
850.408,317.82835984912765
850.525,320.52575671488205
850.643,323.0759674334503
850.761,333.5006370264773
850.879,337.69933259353036
850.997,335.1248679874234
851.115,337.3434769743898
851.233,330.7742071734775
851.35,337.60407157169925
851.468,342.6720312080163
851.586,362.6447527490951
851.704,394.6200716927714
851.822,442.50101834207544
851.94,492.8564238658382
852.057,552.5607471385189
852.175,609.0512175973467
852.293,669.9191772336637
852.411,722.9949290777731
852.529,779.1806376318392
852.647,829.9092033287625
852.764,872.3070330949498
852.882,898.8676334239079
853.0,921.0204415450739
853.118,914.9299596229505
853.236,899.5927244540737
853.353,877.994017423725
853.471,856.2446610427271
853.589,822.8208457872703
853.707,786.342485077268
853.824,762.1706178737592
853.942,741.6420407135405
854.06,709.8935501334086
854.178,671.2532846615015
854.296,633.8831490597245
854.413,593.2593338042677
854.531,541.6415791548714
854.649,489.2272877089383
854.767,446.361914011923
854.884,401.91385633222365
855.002,344.523807310533
855.12,285.93635569143987
855.238,234.09782182126457
855.355,185.14240483420616
855.473,149.9523558125159
855.591,117.273995102514
855.708,93.18536661045712
855.826,79.90642441742249
855.944,54.1902077298338
856.062,36.20958112917958
856.179,22.56142058775589
856.297,13.39357556984225
856.415,2.9361236499305376
856.532,-7.677856073416076
856.65,-17.72238663392148
856.768,-24.376781695061418
856.886,-41.41954317827536
857.003,-48.36643129872493
857.121,-44.5262660627845
857.239,-37.316976513363606
857.356,-31.38465314941648
857.474,-27.172237129217457
857.592,-24.13730924279713
857.709,-26.781852268890923
857.827,-27.196787713809833
857.945,-25.21440435670931
858.062,-20.326334213591164
858.18,-8.712278692101695
858.298,-1.9697372132520377
858.415,-5.0853333165080965
858.533,-5.694946860852505
858.651,-10.58270592082254
858.768,-11.290137739056034
858.886,-13.16686687504426
859.003,-7.10567062985082
859.121,-4.3206884626007565
859.239,-8.229112265407919
859.356,-22.087541067253554
859.474,-29.638964017132132
859.592,-37.62120427138978
859.709,-35.51116703007581
859.827,-31.794273343129
859.944,-22.59602287263084
860.062,-10.744137440430421
860.18,-3.2003457593914635
860.297,0.6693101328292486
860.415,4.5623330546519165
860.532,6.11545113021651
860.65,12.501705112143307
860.768,12.128050517566285
860.885,18.619935901924045
861.003,31.55665083324991
861.12,41.28332440802588
861.238,48.17702670743422
861.356,57.52214608786499
861.473,65.0945037384595
861.591,67.0772509994436
861.708,59.59852639895601
861.826,60.726728205394906
861.943,56.118300873762095
862.061,47.83142744193452
862.178,32.005050820261786
862.296,24.869697365065118
862.414,26.382710917338734
862.531,30.33128310577981
862.649,29.28396849830331
862.766,45.76557637693409
862.884,51.50478978542572
863.001,55.99319414996583
863.119,59.94160903016474
863.236,58.36015378049344
863.354,67.20380675593023
863.471,66.46304414695146
863.589,64.52661054230164
863.706,73.65251459998946
863.824,87.16889484815354
863.941,100.33549154653413
864.059,114.0847722275986
864.176,117.12323039784063
864.294,118.959956966351
864.411,107.1005796387575
864.529,94.00570447566628
864.646,86.0554180571637
864.764,92.02028315381273
864.881,98.3176157829294
864.999,104.94741594451361
865.116,133.50968363856546
865.233,162.28147514214118
865.351,184.587465779916
865.468,201.41986334409773
865.586,212.04533450135287
865.703,221.12102210882438
865.821,217.0460603656465
865.938,208.8282414796113
866.056,218.0234096065631
866.173,218.73199764693493
866.29,215.26829131501242
866.408,220.62882740733232
866.525,221.59369250398134
866.643,220.047735089808
866.76,215.44982962368655
866.878,212.5791968848379
866.995,203.67566371308885
867.112,200.49940326861253
867.23,202.87638957738292
867.347,213.31571354849083
867.465,218.04681241137362
867.582,223.04457794092303
867.699,231.79039541852424
867.817,233.63318259309503
867.934,237.0941515858475
868.051,249.30663573011515
868.169,271.64206359732657
868.286,285.8571451441917
868.404,300.8159496347798
868.521,326.6656632162769
868.638,352.52403480643176
868.756,374.46379167797164
868.873,406.69532344128635
868.99,437.08269936044525
869.108,468.754057963587
869.225,498.2280139693261
869.342,529.642229715325
869.46,570.665103469982
869.577,606.7762889129506
869.694,631.8355263039714
869.812,644.9804779807066
869.929,649.0665551985676
870.046,654.5647536285496
870.164,651.6084066039862
870.281,633.1533582807215
870.398,624.7017731609197
870.516,618.1125257034555
870.633,602.1942739169867
870.75,577.1054593599551
870.867,556.5655625518411
870.985,550.1797782978397
871.102,525.0416130914572
871.219,494.15106693269365
871.337,468.10381081722016
871.454,446.1414031865951
871.571,421.9954457724202
871.688,398.4001377088946
871.806,377.3944400349793
871.923,364.29263846496025
872.04,339.84278494688925
872.157,311.4656587015456
872.275,276.0842034518729
872.392,253.47677417622606
872.509,231.14986438109872
872.626,215.01169917471583
872.744,202.16097985577886
872.861,182.71978434636577
872.978,161.69071004907397
873.095,136.798432288579
873.213,115.85160907353877
873.33,106.91257806629079
873.447,89.46099294648889
873.564,76.35745977473877
873.681,67.9699439190059
873.799,53.01273109357595
873.916,42.61482562745323
874.033,38.01345695786745
874.15,35.49099343931812
874.267,26.602737970322302
874.385,15.074688979551457
874.502,4.720274866120176
874.619,-7.058842145084519
874.736,-17.575929148998046
874.853,-15.907481115707466
874.97,-4.298549135845436
875.088,2.6876795064744394
875.205,6.540655558487796
875.322,14.964474059029554
875.439,17.915960129658142
875.556,19.093447587540567
875.673,19.479383972553514
875.791,15.750798684707696
875.908,12.598262470811175
876.025,5.414254828140189
876.142,-4.964407573438155
876.259,-12.362838443255386
876.376,-19.575497327368947
876.493,-18.720632436866435
876.61,-10.89760833484441
876.728,-5.98732210390893
876.845,6.373196906510466
876.962,15.38355189778202
877.079,16.135520077269994
877.196,14.718196465139842
877.313,9.789293198878944
877.43,1.1357786386601445
877.547,-2.167928651708174
877.664,-0.49365021710809565
877.781,1.7591407474461003
877.898,6.391465922241228
878.016,-0.24707988361299682
878.133,-7.377194102303683
878.25,-5.5512601713726255
878.367,-11.888826595806622
878.484,-15.465813558977985
878.601,-7.366994868443129
878.718,2.2591941484747693
878.835,3.7822672580756898
878.952,-3.757525019499175
879.069,-8.689182529753564
879.186,-11.080674458644447
879.303,-15.609826030425504
879.42,-15.92496742132037
879.537,-13.113697266044442
879.654,-13.90834372166772
879.771,-18.53913768210764
879.888,-19.74643234460545
880.005,-23.53912707712228
880.122,-27.962093453266498
880.239,-33.0153314730381
880.356,-38.69884113643712
