wavelength_nm,intensity
792.446,251.07912596852623
792.565,205.50458051398078
792.684,167.4646670940674
792.803,136.95938570878602
792.922,113.98873635813652
793.041,92.64155021095038
793.16,83.62769739709762
793.279,90.9021562715565
793.398,114.27618224558245
793.518,142.94717791657806
793.637,175.47098744038752
793.756,212.39479696419696
793.875,234.83635540575534
793.994,234.33332510272504
794.113,224.1887363581363
794.232,199.87964544904546
794.351,178.8458792152793
794.47,163.2363554057555
794.589,156.3523727217729
794.708,150.01817358757376
794.827,147.0883034577036
794.946,145.45973202913223
795.066,148.30735107675122
795.185,151.1047536741538
795.304,153.9852731546733
795.423,147.45107402047415
795.542,138.44155021095037
795.661,123.81817358757374
795.78,119.02942899882913
795.899,116.60605237545252
796.018,110.45107402047412
796.137,106.25540302480314
796.256,104.33072770012782
796.375,99.6476108170109
796.494,89.60778397718411
796.613,85.90908267848286
796.732,79.1330595985053
796.851,74.54624671037425
796.97,63.222511935522576
797.089,65.98245308308687
797.208,81.98387404038414
797.327,100.65858130970778
797.446,116.09073898668323
797.565,133.0333189767175
797.684,139.7998758867744
797.803,143.04002587042442
797.922,136.39965637355505
798.041,129.10647302387176
798.16,121.6003026612016
798.279,104.24911065350986
798.398,91.0148017627015
798.517,94.17270066410103
798.636,103.91501514991633
798.755,110.90408288248483
798.874,114.79012031202308
798.993,117.72031358571715
799.112,118.43838564728995
799.231,111.44736679977194
799.35,104.46154275744874
799.469,106.80125984066663
799.588,108.12885571176338
799.707,108.58632171273022
799.826,103.81867948858888
799.945,100.59302860643879
800.064,97.67646863337953
800.183,104.99280909322064
800.302,114.85720150111355
800.421,134.3181307055431
800.54,147.74442787534042
800.659,166.03566011007263
800.778,175.5805719984844
800.897,175.6060033674158
801.016,170.67126157617406
801.135,172.31054575895834
801.254,175.98013297204562
801.373,190.48262061803337
801.492,190.68900436791705
801.611,202.27720629961885
801.729,214.10177186768433
801.848,214.5618352712478
801.967,202.85912811204076
802.086,184.5295811259939
802.205,157.55328089319377
802.324,132.57438325779628
802.443,102.445702072615
802.562,80.98606842633853
802.681,63.76547804894959
802.8,50.67427174602322
802.919,34.676191549059226
803.038,14.45436875560595
803.157,-0.8393590367223186
803.276,-8.836852995975066
803.394,-10.142295602379647
803.513,-13.530083161291252
803.632,-14.242467494204242
803.751,-7.002226172934984
803.87,-9.171229057784915
803.989,-3.863362195271786
804.108,0.27816876151589653
804.227,4.716381599141568
804.346,1.4945716477645608
804.465,-5.005055350130754
804.583,-4.022651394277212
804.702,-0.8793323613319118
804.821,-4.38767409907066
804.94,7.331835701869137
805.059,14.058564090621749
805.178,26.42954476934051
805.297,23.799960656954898
805.416,30.76122774304807
805.535,41.44276855126467
805.653,45.5979945010708
805.772,57.22820976369775
805.891,75.02334932054916
806.01,105.43769608641958
806.129,145.6892950527542
806.248,187.07939262652621
806.367,237.16645989726788
806.485,264.9782024926848
806.604,280.550118248275
806.723,297.874414956246
806.842,290.4264172919228
806.961,279.4208438700238
807.08,267.0161362489907
807.198,263.7681385846675
807.317,251.473387673591
807.436,236.52149390537176
807.555,227.05358282113522
807.674,229.15710030832724
807.793,231.3021762370778
807.912,247.9554772740533
808.03,285.02176532401575
808.149,328.9547200406448
808.268,370.1578046274037
808.387,408.3834000366734
808.506,428.79947163641936
808.624,422.78524020586235
808.743,409.8671126714092
808.862,382.0675998555705
808.981,352.71137708302194
809.1,326.8581846135035
809.219,309.7755549145479
809.337,296.5907607134277
809.456,286.139299845641
809.575,283.3709558609712
809.694,291.5238239975138
809.812,292.2671683245326
809.931,300.18540442644337
810.05,319.2733374980511
810.169,352.3595389679273
810.288,371.5141387062015
810.406,385.8453618210989
810.525,392.3012602606715
810.644,396.47231021539585
810.763,397.8147887415487
810.882,401.2481763586105
811.0,406.41836051246895
811.119,426.14438882217144
811.238,436.7050491665058
811.357,448.63280907793956
811.475,454.1354607642652
811.594,463.22339383587223
811.713,471.02647842263076
811.832,467.13605651588284
811.95,458.1616519251522
812.069,453.093740840915
812.188,450.4223665532146
812.307,449.54406585858754
812.425,441.9999642981596
812.544,431.5952566771257
812.663,420.69444515998777
812.782,404.66203191124816
812.9,392.3326489655388
813.019,403.9755603921238
813.138,415.7440129442499
813.257,435.0761018600123
813.375,456.75191371949757
813.494,473.08660003785735
813.613,487.952022286953
813.731,489.32220644081065
813.85,499.93654643882405
813.969,513.8391981251491
814.088,520.2587329283574
814.206,533.3154971687951
814.325,557.193040630012
814.444,571.464523485168
814.562,582.619123223441
814.681,592.3823809703716
814.8,611.6322188038823
814.918,601.4240479793842
815.037,589.6747516137607
815.156,584.3254552481374
815.274,588.2982368045921
815.393,585.2597629497914
815.512,583.616094289796
815.631,592.705758963134
815.749,603.512306753355
815.868,596.5127939375154
815.987,587.4310300394246
816.105,578.665283457351
816.224,559.2432598190003
816.343,533.7311928906063
816.461,504.8528921959786
816.58,474.3867127134722
816.698,445.51707002750265
816.817,425.5495918436974
816.936,412.961334439113
817.055,397.49342335487484
817.173,379.5649062100305
817.292,372.21214664094373
817.41,369.44033945280955
817.529,370.39580499194824
817.648,364.5867683665848
817.766,376.68162784511765
817.885,382.6241063712696
818.004,379.6401779710147
818.122,379.39477770928795
818.241,378.3216718198555
818.359,383.0847598734815
818.478,387.15194200652627
818.597,361.2255623631929
818.715,378.48725460303393
818.834,387.4353268878712
818.953,520.9802079063029
819.071,687.2606148855505
819.19,854.699742346754
819.308,1001.5437397701535
819.427,1058.2289964729225
819.546,1011.2095096387238
819.664,898.0987821724389
819.783,725.8355351196121
819.901,626.7382688198047
820.02,513.9931162527887
820.138,431.18665966534513
820.257,384.2143443464409
820.376,339.7367559738685
820.494,321.7032226912036
820.613,303.9253548970096
820.731,309.3786559339843
820.85,318.6735154125174
820.969,335.414262336938
821.087,376.8311997375489
821.206,422.16675185677445
821.324,446.3049013785974
821.443,466.01967427704375
821.561,457.61496665600964
821.68,433.32367894839547
821.798,393.6384518468419
821.917,351.7090689011326
822.035,323.3268721026093
822.154,303.83471859412924
822.273,293.78066032374437
822.391,296.7491128758703
822.51,304.29851780894865
822.628,298.78645088055515
822.747,304.8717865495642
822.865,306.88266334411423
822.984,302.229470874595
823.102,299.18580221459956
823.221,304.64862706109756
823.339,308.6421878383316
823.458,320.62362740344463
823.576,318.84575960925054
823.695,335.25663640380094
823.813,338.78353051436864
823.932,337.1164852309969
824.05,329.6754139735992
824.169,331.76507864693724
824.287,325.2746567401888
824.406,318.19375864296387
824.524,316.0254146582931
824.643,320.9107503273019
824.761,311.80387820410283
824.88,311.66670305060086
824.998,317.5572335248047
825.117,333.31096746221203
825.235,333.397168932087
825.354,329.2496041681957
825.472,324.9964116986767
825.591,320.5189768049152
825.709,312.07444234405426
825.828,305.240297493583
825.946,301.72823056518973
826.064,304.99538441601726
826.183,304.7369971413036
826.301,300.6855362735163
826.42,297.44446501611856
826.538,295.91681367214073
826.657,303.84543938443994
826.775,302.86410838678256
826.894,293.45940076574857
827.012,286.4243901144115
827.13,281.10712838082316
827.249,267.3465766039447
827.367,247.5280161690577
827.486,230.25837348308846
827.604,231.1471723555607
827.723,236.1511227431845
827.841,234.2684930442282
827.959,253.80231356172197
828.078,279.9837531268346
828.196,311.39982472657914
828.315,323.9561560665834
828.433,333.18521467931475
828.552,325.03591831369135
828.67,295.86757432902016
828.788,243.27325631837505
828.907,202.83070482644357
829.025,159.66212420677545
829.143,128.34549507347327
829.262,96.39814091544378
829.38,84.71216657559478
829.499,72.77172994749135
829.617,68.71389576050234
829.735,71.26408157269749
829.854,83.09941336504187
829.972,95.8880695195834
830.091,109.12379603562621
830.209,125.59254313401374
830.327,155.00905280440224
830.446,180.64950540290306
830.564,215.13698854159833
830.682,229.92154819298634
830.801,232.24205675294246
830.919,216.10282505315803
831.037,194.0025543923346
831.156,166.79146122068855
831.274,156.86175333042763
831.392,146.7225216306428
831.511,165.2906492382172
831.629,174.8319370189519
831.747,190.6450862715481
831.866,201.46256452847337
831.984,208.2956272009832
832.102,198.60228294708622
832.221,202.54097332522386
832.339,197.06754249124023
832.457,196.56034542349045
832.576,188.09210939470182
832.694,181.36326730530715
832.812,173.20325638474372
832.93,162.5350203559551
833.049,154.19925185963405
833.167,153.92841842824805
833.285,153.75368889296593
833.404,162.04389442261885
833.522,173.28388350205535
833.64,184.86499812261732
833.759,197.35347205053858
833.877,222.25753039404424
833.995,246.66029003625124
834.113,272.05352586893457
834.232,301.43377468863093
834.35,324.30060359490744
834.468,335.00639354014504
834.586,343.423005996205
834.705,337.88031109295764
834.823,326.1835036355975
834.941,300.0442719358132
835.059,282.59075452174295
835.178,273.69827606871183
835.296,265.87852488840787
835.414,261.06223691156725
835.532,274.1688926576703
835.651,291.5422150704399
835.769,304.5588275264995
835.887,323.98669539381433
836.005,346.9435675901333
836.124,373.5359376219498
836.242,399.13090505636364
836.36,416.65834002324516
836.478,443.06802607237773
836.596,463.8725173163156
836.715,476.09345877670387
836.833,487.75682447951635
836.951,501.7881555502942
837.069,508.32598012756523
837.188,513.4040644450961
837.306,510.9228414033196
837.424,519.6762503961752
837.542,524.2954602548318
837.66,527.6679168667354
837.779,534.9823648206303
837.897,543.8517911295038
838.015,545.2701351872947
838.133,546.5577433143496
838.251,540.6375592336121
838.369,542.2784141139134
838.487,542.9712170461627
838.606,543.437180151572
838.724,542.8849614387998
838.842,538.3682405615255
838.96,535.4142902470215
839.078,542.0689979411757
839.196,541.8501125617364
839.315,547.5186730697429
839.433,547.2746794651954
839.551,544.0402096701716
839.669,538.5503286197369
839.787,537.1747332835879
839.905,526.8709994193008
840.023,522.4780880658363
840.142,514.1509775781728
840.26,514.6013562679985
840.378,506.0370163431056
840.496,508.15319589873206
840.614,513.1637477487307
840.732,515.4444294688592
840.85,517.0783579422346
840.968,520.8594725627962
841.087,535.1462148889857
841.205,545.655468037686
841.323,551.4348510565162
841.441,570.9276539887665
841.559,581.3434006439602
841.677,595.7132598532667
841.795,609.0233788028329
841.913,620.9923722112735
842.031,649.8617985201472
842.149,658.464558162354
842.267,661.3010840383272
842.385,673.8224583991487
842.504,678.3689409850783
842.622,692.4522201078044
842.74,690.0047632997946
842.858,693.2663974008757
842.976,705.9081180820433
843.094,691.7714837848562
843.212,672.1352823881019
843.33,665.7943190865856
843.448,664.8672085989222
843.566,668.7357691069294
843.684,669.0311694417762
843.802,685.3438857939387
843.92,697.7812774707766
844.038,704.8056821346278
844.156,705.7772729456652
844.274,718.0700758779149
844.392,730.7074675547535
844.51,733.5959414826743
844.628,734.975324501504
844.746,728.3443179099438
844.864,702.7843069893794
844.982,668.8268934714124
845.1,625.4660167499821
845.218,578.9588196822317
845.336,534.0637438266028
845.454,497.06736926967517
845.572,468.44848389023696
845.69,443.9958322770325
845.808,415.43755295820046
845.926,395.8602260203208
846.044,381.05259605213826
846.162,357.4657453047348
846.28,331.0814919599287
846.398,309.71282303070706
846.516,283.91298527031665
846.634,263.7339267307054
846.752,238.67608031230623
846.87,227.05979233546552
846.988,215.43571215083267
847.106,194.97180512637308
847.224,172.454218448234
847.342,155.03273566619907
847.46,152.91688058979207
847.578,149.71444542680507
847.696,151.87304922485703
847.814,161.33641492767097
847.932,176.01623084693526
848.05,183.34886061901364
848.168,191.5394990491008
848.285,208.47472622377674
848.403,224.49653348503273
848.521,229.39972602767398
848.639,234.2137410811374
848.757,244.70221500905967
848.875,256.67900062529355
848.993,261.37526676100794
849.111,267.0732644984541
849.229,280.47775574239375
849.347,280.0017275058142
849.465,279.71877286230836
849.582,270.4496710326554
849.7,269.6983181207515
849.818,268.4231556850381
849.936,265.5107638120953
850.054,271.4321381729188
850.172,281.73965971988946
850.29,291.9657959854749
850.408,298.5555686146968
850.525,303.9427438413213
850.643,314.07364201166865
850.761,316.0512934287693
850.879,320.29301410993935
850.997,333.50443176080614
851.115,340.9617368575602
851.233,350.8346263698984
851.35,358.0200699947908
851.468,367.305946520116
851.586,390.210870664489
851.704,422.7729376660051
851.822,480.4795934121102
851.94,555.4780240499903
852.057,634.4409568523727
852.175,708.8956645465297
852.293,779.4759133662279
852.411,837.770447900212
852.529,889.8052421744559
852.647,934.7638459725094
852.764,971.2376012857145
852.882,1003.7736942612571
853.0,1017.6084885355008
853.118,1025.040685407147
853.236,1018.5118433177544
853.353,1001.0661181114788
853.471,971.6498301346406
853.589,936.7010746253351
853.707,888.4449598086702
853.824,855.3065939097542
853.942,819.9682280108382
854.06,791.9649270469871
854.178,749.3330546545648
854.296,708.8431736041339
854.413,665.5723401727507
854.531,610.417524057385
854.649,547.4124914918025
854.767,496.2819178006788
854.884,438.0803484385592
855.002,375.1870041846647
855.12,319.8304564675667
855.238,264.78559706215725
855.355,227.38056449657483
855.473,184.36600812146872
855.591,154.6570794519904
855.708,131.1327885805402
855.826,95.98231695506112
855.944,64.93133268332073
856.062,38.88212591310739
856.179,17.94302172719347
856.297,3.18569959835938
856.415,-10.382703743624619
856.532,-4.731152979688294
856.65,-6.336148843439846
856.768,-6.221407851358093
856.886,-12.871735512559848
857.003,-23.566883782027524
857.121,-26.971501433535025
857.239,-35.1372861811498
857.356,-35.1422229810029
857.474,-34.318943713741575
857.592,-31.846114758814366
857.709,-17.775005914654756
857.827,-13.55204261755562
857.945,-5.223288139335525
858.062,2.9302251075500823
858.18,17.647916494028497
858.298,20.901596486632673
858.415,9.497841234118884
858.533,-4.849648136438134
858.651,-12.671431095646607
858.768,-23.290163981748506
858.886,-24.683234199771373
859.003,-24.323049251126424
859.121,-21.183492716602967
859.239,-20.956701581392892
859.356,-26.042539154985576
859.474,-24.98200012583012
859.592,-13.008521832389262
859.709,-7.319121035000099
859.827,1.6310924191927825
859.944,4.568400225006645
860.062,0.7855590569226956
860.18,-4.253535021866264
860.297,-11.005824040943011
860.415,-3.8633270123769186
860.532,-1.0934092575477374
860.65,5.541000189530877
860.768,19.662868047397797
860.885,32.18356853264794
861.003,49.728309985557345
861.12,64.521789752127
861.238,69.48254796510166
861.356,77.5858763910021
861.473,80.03191706881287
861.591,82.07276294142841
861.708,78.80538370581861
861.826,78.89038542258965
861.943,68.97308631322164
862.061,59.156022386647535
862.178,40.686979164274376
862.296,30.28868842791701
862.414,31.964419009757144
862.531,30.937779261405666
862.649,27.42768700627103
862.766,38.9982205676859
862.884,39.71183037874546
863.001,46.26953242599231
863.119,43.66394374837876
863.236,55.58205307950729
863.354,67.00193102610342
863.471,72.28831442311979
863.589,78.15607191952768
863.706,90.71906751117353
863.824,106.35305877381487
863.941,114.00523185463797
864.059,116.4859763640324
864.176,123.85762996433569
864.294,119.5704091057643
864.411,108.70050426450871
864.529,103.49380288645625
864.646,100.92000194130405
864.764,113.69165554160635
864.881,127.16027883887841
864.999,143.9561748634232
865.116,163.39362932952648
865.233,185.74363790818393
865.351,204.9715685647634
865.468,219.5665987884425
865.586,233.39193204242468
865.703,240.10471118385283
865.821,250.152555260346
865.938,246.95364609008584
866.056,238.7313602964491
866.173,230.76102255476036
866.29,238.63310905549565
866.408,241.28528213631745
866.525,247.16775824744207
866.643,248.1930915014235
866.76,252.0617147986948
866.878,248.89224285787066
866.995,242.22320381747937
867.112,234.13425135717466
867.23,240.6132642648352
867.347,248.508727388946
867.465,253.00505631392252
867.582,263.10051943803313
867.699,263.87909944526064
867.817,268.1979391927478
867.934,273.5669953904515
868.051,286.26159271369625
868.169,310.09038917114003
868.286,330.10706441646266
868.404,350.799930137976
868.521,384.7456097123032
868.638,414.47743647277764
868.756,443.8534190774078
868.873,473.92723717987354
868.99,514.3300596113434
869.108,552.0835313934625
869.225,586.9798603184388
869.342,632.0580074252334
869.46,686.4694878653613
869.577,734.2376782621992
869.694,766.0223188754871
869.812,784.6814183632339
869.929,789.730128240591
870.046,793.7641195032295
870.164,789.877764445522
870.281,780.7082925046973
870.398,769.0808119058638
870.516,757.0299546836538
870.633,738.8933831757295
870.75,706.0780237890174
870.867,675.212447952089
870.985,656.0092097774984
871.102,631.3306469275833
871.219,600.9265429521274
871.337,565.602092656325
871.454,543.0343523172326
871.571,520.8371747487028
871.688,480.6148889550646
871.806,442.394334763158
871.923,417.47421347168415
872.04,394.20863763475586
872.157,368.6867847415507
872.275,347.57965046306424
872.392,324.6041179161795
872.509,300.6580225987319
872.626,269.51539048474757
872.744,235.2818492798542
872.861,220.8413816680345
872.978,195.45459370989457
873.095,179.12927761322652
873.213,165.8204117330085
873.33,138.75656749781206
873.447,115.65635962625191
873.564,94.0444634430035
873.681,72.09490492209272
873.799,58.227597483433115
873.916,41.248601733085366
874.033,37.91982243295416
874.15,34.396890641908016
874.267,23.07522571982603
874.385,13.291203062745552
874.502,13.122760253174029
874.619,6.033339556129063
874.736,-2.1170308932130286
874.853,-2.845867093689198
874.97,-1.6616673287155126
875.088,-0.027232574192350256
875.205,-10.958578047949706
875.322,-10.441655308037975
875.439,-2.6689513328330667
875.556,-9.04629862269517
875.673,-10.75929771695768
875.791,-13.192613768630643
875.908,-12.774840217473308
876.025,-9.19979535950912
876.142,-13.367395916317372
876.259,-2.536578023015049
876.376,1.1145972772773978
876.493,-1.6975775350245166
876.61,-0.8721707162727093
876.728,-9.066293023921961
876.845,-3.3326626691489354
876.962,-1.7781117541667197
877.079,-3.1045518183988348
877.196,5.912422853607499
877.313,3.0268030246672994
877.43,-1.66748221350178
877.547,-2.0888591432027193
877.664,-9.037674383732828
877.781,-8.839213066751912
877.898,-13.875011533979677
878.016,-16.215247770476577
878.133,-15.551147741652178
878.25,-24.715815665364758
878.367,-27.037949478793546
878.484,-19.129883052628706
878.601,-12.512378049721818
878.718,-8.09235415607643
878.835,-7.067217362374826
878.952,-7.710427448333232
879.069,-15.579360536828549
879.186,-28.001144811392045
879.303,-28.42857880218468
879.42,-29.49240360427918
879.537,-27.58237966644556
879.654,-29.730371893265414
879.771,-33.33407355817657
879.888,-34.12937777105863
880.005,-35.61506069344705
880.122,-37.14990176430048
880.239,-38.733900983618966
880.356,-40.36705835140249
