wavelength_nm,intensity
792.446,258.0992954052404
792.565,218.34232570827066
792.684,184.8654425913875
792.803,157.66864605459097
792.922,136.75193609788084
793.041,112.14933869528357
793.16,103.2558322017771
793.279,108.35280189874679
793.398,124.30431705026191
793.518,147.92423047017525
793.637,182.4073473532921
793.756,215.6229317688764
793.875,228.594360340305
793.994,234.8047499506947
794.113,225.42206596801074
794.232,200.5900313359761
794.351,177.26622181216663
794.47,153.7398148857597
794.589,142.9164382623831
794.708,133.40561575156062
794.827,126.56405731000221
794.946,129.78050752645248
795.066,136.05236899831394
795.185,144.2497715957165
795.304,153.9683863143312
795.423,157.14933869528363
795.542,152.0220659680109
795.661,133.88959843554335
795.78,125.85756380350861
795.899,116.27228241822726
796.018,105.26362440956925
796.137,96.25583220177707
796.256,87.44284518879007
796.375,85.93115687710178
796.494,78.75280189874678
796.613,77.24457679052165
796.732,81.00042094636576
796.851,87.05323479917965
796.97,80.6653560113009
797.089,78.63851618446111
797.208,82.81254215848703
797.327,99.7415464874913
797.446,113.05929540524016
797.565,132.66362440956914
797.684,145.79436034030508
797.803,147.30345124939603
797.922,135.58483653078142
798.041,123.59003133597624
798.16,117.82206596801089
798.279,110.28353782948275
798.398,103.45323479917973
798.517,107.26708761303252
798.636,111.1597283056732
798.755,114.92423047017533
798.874,120.7683863143312
798.993,121.35972830567319
799.112,128.67314821909312
799.231,126.63072397666886
799.35,116.84197938792431
799.469,108.69825644420139
799.588,100.35020449614942
799.707,98.88526943121431
799.826,94.28526943121429
799.945,90.96405731000219
800.064,107.96925211519695
800.183,124.97184951779435
800.302,135.3900313359762
800.421,153.69998804593294
800.54,163.0385161844611
800.659,169.5553993013442
800.778,166.1839707299156
800.897,161.53548588143082
801.016,161.59609194203682
801.135,160.28007462601943
801.254,157.18656813251292
801.373,156.98916553511032
801.492,159.33635168229648
801.611,169.7458754918203
801.729,169.2809404268853
801.848,179.03245557840052
801.967,170.4212001671451
802.086,163.02726077320565
802.205,138.72942527537018
802.324,114.83678458272946
802.443,89.11808476851604
802.562,65.17933220666367
802.681,35.532053060593476
802.8,19.650030624924877
802.919,7.155392638603721
803.038,5.171832954020903
803.157,-2.4222249858458764
803.276,-4.3003308415284875
803.394,-10.481987754239805
803.513,-15.335857093528267
803.632,-24.57132828952271
803.751,-26.042318679932723
803.87,-18.748567519557273
803.989,-11.986955298576598
804.108,-10.31123928617583
804.227,-10.074831798440922
804.346,-5.264651204258268
804.465,4.932674872548193
804.583,8.917709557401325
804.702,14.347278837581309
804.821,16.952228609399604
804.94,14.579226513266565
805.059,13.669154546716122
805.178,11.348886188376635
805.297,21.683139944676263
805.416,34.69728345912182
805.535,42.45042878162074
805.653,46.20104179211901
805.772,54.96406351525259
805.891,65.60300225878555
806.01,82.70278130764797
806.129,107.04376743098348
806.248,144.65748082704607
806.367,183.5188132707276
806.485,218.65200718627045
806.604,235.99559071220284
806.723,258.1166634156242
806.842,264.079294560604
806.961,254.21854908220732
807.08,247.08940533541232
807.198,238.96891959727543
807.317,226.47181048251528
807.436,212.25262344567727
807.555,206.64642342182617
807.674,214.29823205598353
807.793,223.43402337412365
807.912,245.90228222473132
808.03,284.46231596711385
808.149,318.88468737183405
808.268,345.10446137395684
808.387,363.83592368776806
808.506,372.40894444313784
808.624,361.76378338032595
808.743,341.8614794603713
808.862,324.8699980512393
808.981,307.24648201007267
809.1,290.01344215938207
809.219,273.3050776333669
809.337,252.77333648397496
809.456,239.03207152505922
809.575,231.64924812458509
809.694,231.47681433450043
809.812,242.10524634528156
809.931,255.85229307467756
810.05,276.7309415356752
810.169,297.37236055944345
810.288,295.40165837109026
810.406,304.28203843381937
810.525,299.0749726091026
810.644,296.484357000836
810.763,304.2937413925693
810.882,316.2182772994542
811.0,338.39129805482395
811.119,361.9617214075963
811.238,379.31829194651596
811.357,403.3259447365179
811.475,410.44528583820835
811.594,414.4408174160893
811.713,423.9670849247061
811.832,429.82235676232733
811.95,424.1919143142341
812.069,414.58831169298094
812.188,419.7405532275717
812.307,419.6893315586997
812.425,420.9653826171003
812.544,419.9141609482286
812.663,428.3261427425605
812.782,428.25241025117805
812.9,427.37088555200336
813.019,444.40710977057745
813.138,458.239870785688
813.257,468.9072638354306
813.375,485.9131850237011
813.494,491.19702828989375
813.613,504.5181009933157
813.731,499.59328625085016
813.85,501.4831901231033
813.969,512.783483605746
814.088,506.5331277377395
814.206,511.1078800948412
814.325,522.2653164346268
814.444,528.0686402202998
814.562,539.5239120579206
814.681,534.8042921206496
814.8,533.531425430132
814.918,528.7520652331208
815.037,521.3908868542915
815.156,524.5924790382328
815.274,525.4642010923039
815.393,523.0839750944267
815.512,510.8829698757701
815.631,502.02655340170213
815.749,508.5233836808809
815.868,508.78125292109877
815.987,518.7949663171606
816.105,522.6978572024
816.224,517.8120034988947
816.343,499.049959319199
816.461,460.51735236894046
816.58,430.1864770204136
816.698,408.80971422599947
816.817,390.23121982985384
816.936,369.38346136444414
817.055,357.76340852674014
817.173,343.86716521284546
817.292,332.4678915959204
817.41,318.4590941694714
817.529,319.6165305092564
817.648,320.306434381509
817.766,323.15910881653235
817.885,314.5451165848891
818.004,323.5086135307352
818.122,327.1448377493085
818.241,334.8416680284878
818.359,345.2722455299164
818.478,358.60912226772507
818.597,339.98920198108465
818.715,350.2590563636519
818.834,358.06414205904827
818.953,485.7081742329729
819.071,628.1797091277402
819.19,806.4610506638192
819.308,951.6377542396763
819.427,1030.2187741312937
819.546,974.2936498429278
819.664,859.7756035845216
819.783,679.367890449289
819.901,564.2536131413995
820.02,434.6489739419937
820.138,364.4662691097109
820.257,313.18777356022014
820.376,296.21491608401243
820.494,267.32300177444665
820.613,259.7739446077381
820.731,256.4015108176529
820.85,271.33297313146363
820.969,290.12937051020947
821.087,311.74481550800283
821.206,346.4208665664024
821.324,375.8259219538063
821.443,387.9521894624223
821.561,384.0594093519907
821.68,357.79346906839896
821.798,320.3353209925993
821.917,278.2408092804361
822.035,248.9575529795284
822.154,245.30459970892363
822.273,239.04472003139227
822.391,250.40561957463993
822.51,266.8409779923462
822.628,261.23304636676244
822.747,256.8519545680184
822.865,254.7487848471966
822.984,249.82483590559553
823.102,247.89136315447058
823.221,245.52066096611603
823.339,259.0841579119605
823.458,267.58791459806463
823.576,255.8734894659869
823.695,272.6620946369394
823.813,276.6836002407922
823.932,270.6401707797099
824.05,260.1837543056404
824.169,263.9818832861164
824.287,267.8189733055535
824.406,259.88636635529383
824.524,253.04726589854053
824.643,258.5302433638652
824.761,256.09633771230676
824.88,248.48580868412483
824.998,245.46315844382173
825.117,248.88206664507715
825.235,244.0187237640817
825.354,238.05321638092164
825.472,235.06346657351907
825.591,233.71960421200376
825.709,233.78093665568312
825.828,224.02235567944905
825.946,219.79970543914567
826.064,213.94069156247872
826.183,215.41154781568198
826.301,226.06855125503245
826.42,230.44416941299755
826.538,244.63970099087607
826.657,251.7780897116116
826.775,251.59440051026922
826.894,241.87391477212998
827.012,230.10494418550567
827.13,219.16367922658685
827.249,211.66050950576312
827.367,192.88288091048037
827.486,192.70092331086852
827.604,197.3769743692652
827.723,213.39761417225054
827.841,224.19920635618803
827.959,235.94711888644585
828.078,255.1478452695176
828.196,274.7970565010743
828.315,286.72505561141907
828.433,298.3015395702486
828.552,291.70572915678383
828.67,279.6995291329294
828.788,239.6781339501674
828.907,192.55951714035064
829.025,147.15843570784966
829.143,99.15450431969244
829.262,72.80926370910889
829.38,50.662929428678325
829.499,39.248585345864065
829.617,35.13284995005411
829.735,34.20667681278859
829.854,36.71422241898155
829.972,43.94746989136415
830.091,58.27646412566388
830.209,83.47690319373588
830.327,112.46982902685778
830.446,140.7405422701142
830.564,165.69871186210082
830.682,183.60587992271095
830.801,184.05262809549322
830.919,173.37037193927114
831.037,164.58508548001873
831.156,147.7114873324546
831.274,143.93745628445748
831.392,136.19805727109232
831.511,147.6612556603244
831.629,144.55475707985934
831.747,145.64566109679674
831.866,135.20409758126647
831.984,137.67508817829008
832.102,133.8698882991231
832.221,129.91750227276992
832.339,127.95992144122178
832.457,132.93913714646996
832.576,127.75904549241064
832.694,124.15428901535759
832.812,115.53336392102173
832.93,112.53517298994802
833.049,104.65398237478256
833.167,92.30496752969742
833.285,80.42591723897733
833.404,84.23766712518271
833.522,88.9778679679763
833.64,93.71137531451268
833.759,111.42359928182131
833.877,131.70293844536857
833.995,159.850537079403
834.113,186.95051128771317
834.232,203.94389426649587
834.35,232.91390062190186
834.468,241.88996758336847
834.586,246.5820518608525
834.705,248.72175518595571
834.823,240.45193470153535
834.941,222.71111854611925
835.059,203.52181754221817
835.178,185.47623948204
835.296,174.1397523309526
835.414,160.95564613224622
835.532,167.18885595085575
835.651,183.72769347509296
835.769,204.47951801231716
835.887,218.60623432443296
836.005,241.76931427291242
836.124,272.07092235991996
836.242,292.3353010096978
836.36,301.7763030360992
836.478,325.1670886122839
836.596,341.2401252707199
836.715,356.9218199378138
836.833,372.1948565962497
836.951,390.77092355771595
837.069,407.53313770532935
837.188,418.56461592220666
837.306,425.2601634031531
837.424,439.30549443388315
837.542,437.7889207027083
837.66,436.32689242607887
837.779,441.8605351451203
837.897,443.50932937931316
838.015,446.4040110593934
838.133,447.3982598390404
838.251,450.5821190082978
838.369,456.4482292598064
838.487,457.8684520654275
838.606,456.5345623169361
838.724,455.15738252515507
838.842,458.0633196164909
838.96,451.8160099545802
839.078,441.94878687275576
839.196,444.8434685528362
839.315,452.7875008822673
839.433,454.8596717398366
839.551,459.1855222510857
839.669,459.8499009008628
839.787,465.50475574111624
839.905,450.8652382869974
840.023,444.9850281921857
840.142,440.005250997807
840.26,429.65231363026794
840.378,420.42664899000147
840.496,417.40617915492976
840.614,417.62553615968477
840.732,417.4665381860849
840.85,407.49541900036394
840.968,414.95806604840914
841.087,424.29690357264485
841.205,433.6920181531577
841.323,453.7044487509865
841.441,466.6519442838802
841.559,484.00723202456606
841.677,496.75645915919125
841.795,496.0268984150286
841.913,510.9882467617749
842.031,532.2941838531096
842.149,546.2122421565659
842.267,561.4575731872949
842.385,573.0535535686734
842.504,583.7473694478875
842.622,598.883609569526
842.74,602.2181180894329
842.858,614.3179945747077
842.976,617.407481449593
843.094,610.024241051751
843.212,594.4825590954674
843.33,581.800617398924
843.448,571.4632644469694
843.566,574.1692015383047
843.684,583.4344459889471
843.802,600.919603859503
843.92,609.9502162755134
844.038,629.2180581287535
844.156,636.5257268218204
844.274,653.3286336101255
844.392,662.0207178876082
844.51,662.0392090914977
844.628,655.1633280010149
844.746,638.8242434473286
844.864,609.1873233958065
844.982,576.2534336473145
845.1,535.8641326434113
845.218,506.304268868945
845.336,464.9721107221844
845.454,433.3395196749909
845.572,408.62034854121737
845.69,384.2717401780066
845.808,355.4149067065706
845.926,330.7771208541822
846.044,312.58262504508366
846.162,297.6764409242969
846.28,269.62999706325047
846.398,254.60779562644638
846.516,240.98645999050817
846.634,220.06382565327135
846.752,197.7420571169004
846.87,178.32937948962058
846.988,162.9556629013017
847.106,140.65685722533726
847.224,113.21489304791885
847.342,110.44197187000594
847.46,109.85502498178448
847.578,110.31813770509129
847.696,117.682376233241
847.814,123.28189152712977
847.932,134.28370286501897
848.05,136.80804416288157
848.168,146.38087030922907
848.285,161.60651030839057
848.403,167.4858299612317
848.521,174.15908900801202
848.639,183.71979394223806
848.757,198.06578026174546
848.875,215.49661506610147
848.993,233.04433298734062
849.111,248.6180249345539
849.229,258.7051367951872
849.347,267.1377032012749
849.465,269.33217436926725
849.582,274.9950438056578
849.7,286.3713331554682
849.818,297.14329350094965
849.936,308.3083274395044
850.054,312.3331016377994
850.172,312.49900137721994
850.29,321.7220439737832
850.408,319.92950215476196
850.525,324.16553176431216
850.643,329.5556739279749
850.761,332.0904048362265
850.879,335.56366388300614
850.997,336.18151167437463
851.115,335.3378876042714
851.233,347.56525920516384
851.35,353.2497736631994
851.468,370.44424483119167
851.586,396.46988483035284
851.704,425.6487715827609
851.822,470.3107752182856
851.94,524.0714801525116
852.057,591.734349588902
852.175,651.5651843932577
852.293,705.1561923577866
852.411,763.3766375517528
852.529,814.1113684600043
852.647,856.2599521821089
852.764,893.3418692375467
852.882,915.4488945180929
853.0,941.419989062708
853.118,949.4577502739901
853.236,949.962178151939
853.353,940.8527532160349
853.471,913.0974408342433
853.589,877.5758946862179
853.707,836.9746948585388
853.824,791.9319365893011
853.942,761.9194813503665
854.06,727.4957707001765
854.178,692.3569085348355
854.296,651.0015961530443
854.413,603.0514785764481
854.531,552.3983306968216
854.649,497.0958321678444
854.767,448.6695241150576
854.884,403.2908351098898
855.002,345.4446136371895
855.12,290.3187384848355
855.238,246.35563389525194
855.355,203.06698818012723
855.473,167.76795285461307
855.591,133.4706491308305
855.708,104.30364913888403
855.826,81.46891156406477
855.944,54.01734924500348
856.062,27.800585949268317
856.179,13.913259046448044
856.297,-0.7576852637998766
856.415,-5.605660344889637
856.532,-13.349026150154772
856.65,-26.90604433748089
856.768,-26.913062630390733
856.886,-28.662555455978463
857.003,-32.335404813079464
857.121,-36.36542590056104
857.239,-38.586581848013154
857.356,-37.90914905284089
857.474,-42.48663744563565
857.592,-41.65067976881082
857.709,-33.71738083353957
857.827,-20.55126566763107
857.945,-10.416920763957783
858.062,-2.1688235406646017
858.18,1.4166939339728213
858.298,5.324007475832753
858.415,2.08072995622665
858.533,1.300197595572544
858.651,4.815379975569077
858.768,0.263374765799389
858.886,2.7066014206054274
859.003,-2.1643000275176068
859.121,-14.992716677166868
859.239,-24.027219902415887
859.356,-31.717963475188355
859.474,-34.407508764674844
859.592,-21.796493577972065
859.709,-20.736137473091787
859.827,-9.726841144131745
859.944,-13.161646599665398
860.062,-10.99362709662961
860.18,-8.707157999509338
860.297,-9.39346866206252
860.415,-8.02730446238375
860.532,4.587595230075145
860.65,4.800947832248687
860.768,11.140028333260116
860.885,23.046436467371056
861.003,44.833411587547324
861.12,51.63195423373957
861.238,50.45386351249528
861.356,46.306127453498306
861.473,52.13710782340847
861.591,53.54276991435031
861.708,55.864150709356196
861.826,66.45212680698465
861.943,73.56191100858476
862.061,66.5409311061754
862.178,60.54592522974016
862.296,46.16304056542607
862.414,51.82864074959672
862.531,51.182704618508815
862.649,41.88241030221094
862.766,35.960807114374376
862.884,41.14716187263892
863.001,47.64011907177357
863.119,52.18908616506137
863.236,52.71154958161558
863.354,60.97619160949664
863.471,58.312847105668894
863.589,59.8304549827937
863.706,63.834642946498676
863.824,85.52454519591797
863.941,101.37288900377875
864.059,112.79439298479946
864.176,116.89901384893685
864.294,114.06510657454578
864.411,101.33336380231916
864.529,95.18084180931332
864.646,91.11576570375342
864.764,95.18055972806386
864.881,104.85574336276397
864.999,116.70322136975858
865.116,132.25632708238098
865.233,157.95661894218927
865.351,181.00582855091534
865.468,211.2238693284724
865.586,234.39342525754466
865.703,245.8764011000369
865.821,242.52907391222624
865.938,231.27611901878788
866.056,217.12359702578254
866.173,210.68362914533122
866.29,207.95448377570244
866.408,222.6634336441689
866.525,228.58710212735377
866.643,234.7454026451706
866.76,239.35478541406957
866.878,238.86460108340128
866.995,231.29216567048206
867.112,223.031418569251
867.23,226.65984895719737
867.347,228.1965044533687
867.465,227.61541103179096
867.582,240.03172020761576
867.699,247.31123284664403
867.817,245.03403552896233
867.934,249.64255249699514
868.051,258.78093959489803
868.169,283.19638296985704
868.286,296.9001380331277
868.404,313.1519450444502
868.521,337.54228019430064
868.638,356.18542919696495
868.756,380.09437906542996
868.873,410.2855800161461
868.99,448.14691083699233
869.108,492.9268563764533
869.225,533.8115638206764
869.342,567.2131543817826
869.46,615.0640955922395
869.577,647.3081103957702
869.694,669.4049390521146
869.812,682.4671356738272
869.929,691.9319296981371
870.046,696.8166371423606
870.164,695.4909549761944
870.281,681.9167879615434
870.398,674.6846122888837
870.516,655.1684539322414
870.633,631.3345466578501
870.75,607.8400333228526
870.867,588.8979009402358
870.985,574.8882360900866
871.102,553.202380763747
871.219,525.5520232729051
871.337,498.01335409375156
871.454,481.3127801526932
871.571,457.36891616834487
871.688,428.2060045649488
871.806,399.23443495289456
871.923,371.47585235382724
872.04,337.1796074170975
872.157,309.05479105179614
872.275,287.38798334450337
872.392,275.3073228233577
872.509,259.65523373078355
872.626,235.79881563388028
872.744,212.6419646365441
872.861,190.95870671280105
872.978,169.84601155962082
873.095,149.8943553674796
873.213,140.68728791992714
873.33,131.096670688825
873.447,113.88614003780941
873.564,89.05483016601448
873.681,65.77849864919787
873.799,49.6684008986149
873.916,42.891636481365154
874.033,37.99712314636656
874.15,37.71211879473142
874.267,30.172008837488203
874.385,25.29986639126315
874.502,14.755304111696073
874.619,4.7529226375757965
874.736,-3.1381995724392113
874.853,-0.5477245783700226
874.97,0.45378176921370716
875.088,-0.0352839308063273
875.205,-4.204355336913745
875.322,6.016944747473879
875.439,4.273844264955065
875.556,6.313165327687345
875.673,3.431596860850362
875.791,-1.0792164948667797
875.908,-6.462391181413619
876.025,-7.949318269209375
876.142,-7.3934818705152985
876.259,-9.332359921440052
876.376,-14.58856574970907
876.493,-16.2416980190724
876.61,-14.601509244937361
876.728,-11.633456168297217
876.845,-6.159264102801349
876.962,-2.014326443503826
877.079,9.673351793412996
877.196,12.075016318865776
877.313,11.607385073365712
877.43,9.560427646983463
877.547,-1.0762675152474896
877.664,-0.5846482279584526
877.781,-5.7294745245628915
877.898,-8.856316944194994
878.016,-6.828498618267667
878.133,-5.137316719150888
878.25,3.461719111829205
878.367,6.36318479382848
878.484,-3.9154250682007627
878.601,-7.318373963437798
878.718,-20.280646882131176
878.835,-29.272727572800704
878.952,-31.2901283493515
879.069,-28.332674443682407
879.186,-21.51389708090492
879.303,-17.475296999704355
879.42,-11.85020404161629
879.537,-3.8597832002440056
879.654,-4.684344881399199
879.771,-6.327898677369847
879.888,-9.748993733591425
880.005,-14.933746502501902
880.122,-23.505851055815825
880.239,-35.4653073935332
880.356,-50.81211551565404
