wavelength_nm,intensity
792.446,0.23297831949978845
792.565,0.1970888862224023
792.684,0.16748022356880266
792.803,0.1441523315389894
792.922,0.12710521013296253
793.041,0.10884506268997557
793.16,0.10541100488835278
793.279,0.11037591553610726
793.398,0.12538591474105065
793.518,0.14731907290453622
793.637,0.17419771464920106
793.756,0.2001820637625174
793.875,0.21998083487826614
793.994,0.22640083281250872
794.113,0.21822268535320372
794.232,0.19480983228556797
794.351,0.16755819086265783
794.47,0.15415934304569057
794.589,0.1450130801020511
794.708,0.14196238308084708
794.827,0.1448809760493393
794.946,0.14690786666202632
795.066,0.1480411122122507
795.185,0.1498808554169292
795.304,0.1470865956745187
795.423,0.1519835115892597
795.542,0.14987049431475563
795.661,0.14203037781386046
795.78,0.13203320935422394
795.899,0.12631129067891955
796.018,0.12218951472053205
796.137,0.12071759064301206
796.256,0.11632577845922815
796.375,0.12106468756582356
796.494,0.12289730751275782
796.613,0.11792268333171571
796.732,0.10874987006375667
796.851,0.10671844646886873
796.97,0.10695480911220132
797.089,0.10853293448699955
797.208,0.11651616371166593
797.327,0.13023102514492424
797.446,0.1401226398761685
797.565,0.14544565611779386
797.684,0.1469998214438159
797.803,0.14909341165174472
797.922,0.14313577790199372
798.041,0.13733226554707323
798.16,0.12812577869705039
798.279,0.1186214101595399
798.398,0.11365131896069863
798.517,0.11508309376729645
798.636,0.12241745896834863
798.755,0.13434762055222504
798.874,0.138430542377462
798.993,0.14344661096719802
799.112,0.13864812552310501
799.231,0.13277402815962766
799.35,0.12508350007136212
799.469,0.12294846545473945
799.588,0.1210187101749288
799.707,0.11949757086208473
799.826,0.11839411348060905
799.945,0.11467253509367215
800.064,0.11977667305188278
800.183,0.12620508938164132
800.302,0.13219833942011375
800.421,0.1453271510116847
800.54,0.15494808194864682
800.659,0.16812157579334092
800.778,0.1748608251883039
800.897,0.1776524946551709
801.016,0.18207539014547525
801.135,0.18108137190570697
801.254,0.17418152542705506
801.373,0.17850663801559713
801.492,0.1819160881995579
801.611,0.19579737483647788
801.729,0.2039094702694269
801.848,0.2112749187769995
801.967,0.20552709734626146
802.086,0.189818371313494
802.205,0.16424522844268763
802.324,0.14576037459631336
802.443,0.11637008556243866
802.562,0.09438584416634013
802.681,0.07650622956036729
802.8,0.06324889762360725
802.919,0.0551315573084097
803.038,0.05143319746613706
803.157,0.04974483144419202
803.276,0.051867430213316655
803.394,0.04463120176971733
803.513,0.03803020840585422
803.632,0.032060098110818905
803.751,0.02688480931164959
803.87,0.03633785482416629
803.989,0.03478131542110263
804.108,0.03782099107911116
804.227,0.038624180747420515
804.346,0.03183633509203512
804.465,0.03301065906725647
804.583,0.035516691514401164
804.702,0.041513884766118184
804.821,0.05332294183745025
804.94,0.058082148352668915
805.059,0.06496804615250151
805.178,0.06881570919439761
805.297,0.06644743278723808
805.416,0.07791890682999944
805.535,0.08286322439902169
805.653,0.08993887836326223
805.772,0.09978923509975418
805.891,0.11469155599931746
806.01,0.1274809920489242
806.129,0.15411366963085693
806.248,0.18148141949315752
806.367,0.21346115496042845
806.485,0.23530514222649235
806.604,0.25818135429658917
806.723,0.27142303648312127
806.842,0.26789009425078925
806.961,0.2606666569380408
807.08,0.26118490565553953
807.198,0.25499628342236746
807.317,0.23999683892842216
807.436,0.2260024213453043
807.555,0.21706486919173051
807.674,0.21141113885826396
807.793,0.21045940620489978
807.912,0.22577654667055674
808.03,0.2610122584958432
808.149,0.28905347999941966
808.268,0.3163972698129437
808.387,0.341092502883372
808.506,0.3496295971142583
808.624,0.3499315578238854
808.743,0.33688518108964105
808.862,0.3183312309813061
808.981,0.30391395091573303
809.1,0.285541320095434
809.219,0.27594842822938737
809.337,0.267365743825255
809.456,0.2573499894767531
809.575,0.2524973018550734
809.694,0.25625274743289805
809.812,0.26685752911627897
809.931,0.28238707217649217
810.05,0.3016789904634503
810.169,0.3178418558940175
810.288,0.3263912539337344
810.406,0.32551722954667117
810.525,0.3261546309391643
810.644,0.32616259537461867
810.763,0.32940322368819874
810.882,0.3370719280431699
811.0,0.3439434750996688
811.119,0.3526858486673668
811.238,0.36386502395249
811.357,0.37205696396722165
811.475,0.37370975337271584
811.594,0.37110801519822495
811.713,0.3763081869603644
811.832,0.3792684179463746
811.95,0.37343272075598616
812.069,0.36668330386767384
812.188,0.3654323943890501
812.307,0.35688144086032375
812.425,0.3429142211704107
812.544,0.3376367283596182
812.663,0.33424171829996985
812.782,0.32355896799905004
812.9,0.32135095170715117
813.019,0.3270180206359832
813.138,0.33905263441930455
813.257,0.354951939313334
813.375,0.3814966291217284
813.494,0.40025365550898073
813.613,0.40665312484770055
813.731,0.40775224285579936
813.85,0.41736883441938477
813.969,0.4211158616016937
814.088,0.4245332762211089
814.206,0.43306842774533744
814.325,0.44748674259744503
814.444,0.4533616811386324
814.562,0.4573366525687578
814.681,0.46160173485974054
814.8,0.4667876601063913
814.918,0.46404410434590077
815.037,0.46643447471236976
815.156,0.4701840921702223
815.274,0.475166680786719
815.393,0.4724451423683473
815.512,0.475531001718211
815.631,0.4772951729720702
815.749,0.4802353293226193
815.868,0.4799959224436817
815.987,0.48506334258422334
816.105,0.4879711204904803
816.224,0.4777474965296229
816.343,0.4581315334485058
816.461,0.44064089145072394
816.58,0.4173810582489712
816.698,0.3915516717081955
816.817,0.37109581178214096
816.936,0.3572749426604288
817.055,0.3443418904812066
817.173,0.3301240616324728
817.292,0.32097022147102733
817.41,0.32087716516029
817.529,0.31456032428772035
817.648,0.31408908774765104
817.766,0.31655263339821993
817.885,0.3160451330005435
818.004,0.316848959596698
818.122,0.3238966453901462
818.241,0.3311250029027444
818.359,0.3422498971075084
818.478,0.34372037675396283
818.597,0.32773194651306203
818.715,0.33146704953774236
818.834,0.3334519998468489
818.953,0.43364532360736585
819.071,0.5518068758149605
819.19,0.6993237670933683
819.308,0.8186941636024936
819.427,0.8832295094854472
819.546,0.8464939289047677
819.664,0.7529348202140183
819.783,0.6073756566666166
819.901,0.5175311564036044
820.02,0.41762080667238494
820.138,0.36864426160856756
820.257,0.33553948146996704
820.376,0.3145261167663484
820.494,0.2869677213003732
820.613,0.27275636814049775
820.731,0.27075039334098205
820.85,0.2816653605206817
820.969,0.3036382139950281
821.087,0.3401373327165935
821.206,0.3764505991679222
821.324,0.39141287188413765
821.443,0.394757111219453
821.561,0.3953899796297459
821.68,0.3767706250639412
821.798,0.3493805975082857
821.917,0.3215683550390609
822.035,0.30453748695022786
822.154,0.2923938212428481
822.273,0.2842650826276918
822.391,0.2818679762211276
822.51,0.28178592858145024
822.628,0.2791874282513888
822.747,0.27689781827987436
822.865,0.2776932264805136
822.984,0.2775613160366266
823.102,0.2755805964236593
823.221,0.2812554361791221
823.339,0.2869529408455893
823.458,0.2914776982597955
823.576,0.2971538331530296
823.695,0.2980379582910291
823.813,0.3018490947930367
823.932,0.29758698999524597
824.05,0.2853785673992819
824.169,0.2853334311860976
824.287,0.28326399463576957
824.406,0.2790413915400152
824.524,0.2784121481918007
824.643,0.2751615459936958
824.761,0.27917860940140127
824.88,0.2786121802351136
824.998,0.2794341387600723
825.117,0.2868308641829899
825.235,0.28559290608208354
825.354,0.2828765482147987
825.472,0.2846737454818359
825.591,0.28268201719780855
825.709,0.288191079318495
825.828,0.280248840542461
825.946,0.2692617328651956
826.064,0.26614517742646004
826.183,0.25830525453438935
826.301,0.2577802697767955
826.42,0.2682510047008073
826.538,0.27047235958807136
826.657,0.27648652543971497
826.775,0.2713696297126116
826.894,0.2618039357397701
827.012,0.25064133689444107
827.13,0.23304514116826694
827.249,0.22711036593834483
827.367,0.22666697486036735
827.486,0.22145618164481756
827.604,0.22607030356527036
827.723,0.23993300431332593
827.841,0.24588759382747288
827.959,0.25361846479548583
828.078,0.269254856721864
828.196,0.2874290711118589
828.315,0.29833108691384225
828.433,0.3026667542133825
828.552,0.2981825332877478
828.67,0.2740385594784291
828.788,0.23836707770315602
828.907,0.20810585521911645
829.025,0.18149624343306853
829.143,0.15578830936363844
829.262,0.13090001408385551
829.38,0.11072801092465671
829.499,0.10003737802805103
829.617,0.08495609920097727
829.735,0.08618150599321422
829.854,0.09461176611700164
829.972,0.10922013629973434
830.091,0.1278657341412024
830.209,0.14327457473697686
830.327,0.16184354739823015
830.446,0.18248316342398313
830.564,0.19323555892164035
830.682,0.20570684185549448
830.801,0.2121032810712601
830.919,0.2101434913841141
831.037,0.20580064819706761
831.156,0.18987074690647562
831.274,0.17644290795392734
831.392,0.16151429745942997
831.511,0.1626822145102391
831.629,0.17171096541066683
831.747,0.18318095876064017
831.866,0.19176049773964648
831.984,0.20047264450339886
832.102,0.1990320982457469
832.221,0.18835462940043757
832.339,0.17632827456591837
832.457,0.17829912119888497
832.576,0.17401963294569966
832.694,0.1643710473559462
832.812,0.15707277424524246
832.93,0.15019218988010918
833.049,0.1448799545115328
833.167,0.1319385361785344
833.285,0.12388672413781028
833.404,0.13164388568353194
833.522,0.1439897286573081
833.64,0.16122881754759272
833.759,0.18359590098616096
833.877,0.205275016982882
833.995,0.2246387467881672
834.113,0.2455060351452543
834.232,0.25984388642639145
834.35,0.2775089466429874
834.468,0.288593411841652
834.586,0.29761601770779406
834.705,0.29345476862706865
834.823,0.28273105645721536
834.941,0.2631434213779497
835.059,0.2540884942269125
835.178,0.24368597622443683
835.296,0.24387379978102947
835.414,0.24799560431911527
835.532,0.26236453890677286
835.651,0.27727160323856564
835.769,0.2900934957579455
835.887,0.29694415558097154
836.005,0.3148112572899502
836.124,0.3345239303235799
836.242,0.3519513327590715
836.36,0.36927771444837165
836.478,0.38569685212860655
836.596,0.39730520055591756
836.715,0.4042853741561122
836.833,0.40885788663874434
836.951,0.4231789011288496
837.069,0.43500288999514614
837.188,0.44381179812895993
837.306,0.45451160740943397
837.424,0.45818140886520164
837.542,0.4610682995379858
837.66,0.46114668395287084
837.779,0.4587545930682667
837.897,0.4607847501050809
838.015,0.45991315096443464
838.133,0.4606203247674724
838.251,0.464353587974052
838.369,0.46905496666496616
838.487,0.47550024836545424
838.606,0.4782245992478912
838.724,0.479115682614508
838.842,0.48437073270281744
838.96,0.47702992039260433
839.078,0.4683233853021495
839.196,0.4642275406788934
839.315,0.46841410210556295
839.433,0.4669648715187452
839.551,0.4694159483313569
839.669,0.473219148977608
839.787,0.48147050030071104
839.905,0.47220317055511685
840.023,0.46123273463975706
840.142,0.4586787515336923
840.26,0.45418206177010007
840.378,0.444129230965979
840.496,0.4465634709875591
840.614,0.4475989622157195
840.732,0.44777383439459506
840.85,0.44110196074345787
840.968,0.4434798622719698
841.087,0.4553906253689693
841.205,0.4589173141009659
841.323,0.46927002645862825
841.441,0.4860809433147978
841.559,0.4965437423830532
841.677,0.5062074414461788
841.795,0.5208282803304288
841.913,0.5363971600635524
842.031,0.5540952462933261
842.149,0.5613584074966338
842.267,0.5695126234868608
842.385,0.5796199072367887
842.504,0.5865010027974493
842.622,0.5974999889031822
842.74,0.5999128591515295
842.858,0.6081298893236831
842.976,0.6105524731053177
843.094,0.6044025399761693
843.212,0.5952258698745929
843.33,0.5890578048166406
843.448,0.5830587552378933
843.566,0.5868522423508562
843.684,0.5869921458098958
843.802,0.6037454290352248
843.92,0.6127751581591103
844.038,0.6229446085220784
844.156,0.62470408176461
844.274,0.634397568996484
844.392,0.638980442581289
844.51,0.6452664223358597
844.628,0.6384831668363573
844.746,0.6306864660305112
844.864,0.6082132639959306
844.982,0.5747961477906117
845.1,0.535207052534328
845.218,0.5095523445636033
845.336,0.4722290928388825
845.454,0.4452539919099247
845.572,0.42140988654401534
845.69,0.4066492299398188
845.808,0.3850139820435183
845.926,0.3677822025709469
846.044,0.355877972322202
846.162,0.34661841340323785
846.28,0.3192314586628847
846.398,0.29684179301457814
846.516,0.2792771631346842
846.634,0.25471943685657705
846.752,0.2307425798690706
846.87,0.21270198685808228
846.988,0.20198151253265756
847.106,0.18969715934792314
847.224,0.17328390694705675
847.342,0.1677983794947826
847.46,0.17097732373508112
847.578,0.16851529541080557
847.696,0.17035830503961114
847.814,0.17311438679745475
847.932,0.18207353091278386
848.05,0.1857536934707249
848.168,0.1928633808480878
848.285,0.20026706449962325
848.403,0.21111063407275404
848.521,0.21173491905840422
848.639,0.20992823044660164
848.757,0.22375061689460787
848.875,0.2354068854194708
848.993,0.24473773407527324
849.111,0.2524412421209534
849.229,0.25666795281854526
849.347,0.2596331993265159
849.465,0.2471863063514349
849.582,0.23311336790400325
849.7,0.23121342937263895
849.818,0.2290693573713119
849.936,0.23537735446800123
850.054,0.24043619118390028
850.172,0.2518994841807818
850.29,0.2631503745831067
850.408,0.2707263115582754
850.525,0.2773108205692191
850.643,0.28435639862688267
850.761,0.29175360658955873
850.879,0.29606320610453785
850.997,0.29509058621769957
851.115,0.2985440996655949
851.233,0.30258172024852015
851.35,0.31383584849527435
851.468,0.3317450421818318
851.586,0.3579107391628812
851.704,0.3926748558101473
851.822,0.4319447567651056
851.94,0.4776735097874569
852.057,0.534574121228363
852.175,0.5915025781313605
852.293,0.6475833673627901
852.411,0.6999140851763058
852.529,0.7453870484887496
852.647,0.7912116417062058
852.764,0.8251494604551373
852.882,0.8548411700195995
853.0,0.87770620838951
853.118,0.8870441803030562
853.236,0.879301227714735
853.353,0.8596132194581627
853.471,0.8298445063556803
853.589,0.8002007740481654
853.707,0.7629455170564576
853.824,0.7379591001759218
853.942,0.7186790603174302
854.06,0.6954106436910347
854.178,0.6665180912910971
854.296,0.6345975067809602
854.413,0.5905246445591026
854.531,0.5431867400148269
854.649,0.4893563098210941
854.767,0.4445400385182888
854.884,0.403012122017792
855.002,0.35453449623443356
855.12,0.31333683986571687
855.238,0.2720627703684708
855.355,0.22799249842215674
855.473,0.19626747971554404
855.591,0.16184512361470907
855.708,0.13592980610068386
855.826,0.11798812310861789
855.944,0.08995817549968681
856.062,0.07949714334787633
856.179,0.06601571949395177
856.297,0.05683486501550102
856.415,0.04833367652029442
856.532,0.039203798287972505
856.65,0.031859004940361355
856.768,0.0311175565745493
856.886,0.022304718269364043
857.003,0.022859509390502117
857.121,0.022417062489460342
857.239,0.022347870413173418
857.356,0.020248072492713515
857.474,0.02111166296970999
857.592,0.018594523157331413
857.709,0.02520913790466959
857.827,0.02963188984349012
857.945,0.03169145607343365
858.062,0.041311184549227525
858.18,0.04796831287714122
858.298,0.050700533581150765
858.415,0.052932252119766626
858.533,0.047687450504030254
858.651,0.04884685265777887
858.768,0.04276020758598111
858.886,0.044435450935904564
859.003,0.04461328832344387
859.121,0.042661380506840006
859.239,0.04030947944250725
859.356,0.029602440002511974
859.474,0.024756177113625703
859.592,0.028666654422919654
859.709,0.028153079054676677
859.827,0.03709971880606907
859.944,0.039305320466837934
860.062,0.041344665770072675
860.18,0.04352096137868038
860.297,0.03932172682304716
860.415,0.04675313948232791
860.532,0.05547148624019391
860.65,0.05922410628950586
860.768,0.06376948521165025
860.885,0.06903211195727053
861.003,0.07945683825564534
861.12,0.09111865863181376
861.238,0.09891004213606341
861.356,0.10306500740567605
861.473,0.11117776921393632
861.591,0.11070074648892815
861.708,0.1084280152434786
861.826,0.1054209408814834
861.943,0.10934997685574711
862.061,0.09981638199252174
862.178,0.08932049808844533
862.296,0.08500098278255383
862.414,0.08811351660317808
862.531,0.0893436993722155
862.649,0.08863104660478072
862.766,0.08620609820329472
862.884,0.08753229268496804
863.001,0.07943269263633082
863.119,0.0734716488318396
863.236,0.07090510483885391
863.354,0.07321634214623343
863.471,0.08376792839212208
863.589,0.0938284759452386
863.706,0.10522238276537077
863.824,0.12768505143055947
863.941,0.1437543243249077
864.059,0.1465528902830614
864.176,0.13769715900270751
864.294,0.1307698878643927
864.411,0.12902640565724713
864.529,0.11805636196461766
864.646,0.11500543817695622
864.764,0.1244752587970595
864.881,0.13138329690476985
864.999,0.1364761994254638
865.116,0.14942152225588398
865.233,0.17351798130051221
865.351,0.19789419010382453
865.468,0.21343496902870177
865.586,0.22898740419352404
865.703,0.23842355123156378
865.821,0.2420412918303087
865.938,0.24404011021444721
866.056,0.24543798467252398
866.173,0.2457064989936913
866.29,0.24593874945725144
866.408,0.2401511995580196
866.525,0.2406463629892317
866.643,0.24197430000763726
866.76,0.24064785216297435
866.878,0.24499475532717757
866.995,0.23806424634443346
867.112,0.2337803513981277
867.23,0.2277318312379011
867.347,0.22274726675711376
867.465,0.2277320252738717
867.582,0.23220908978412902
867.699,0.23410623985318962
867.817,0.24176027731739008
867.934,0.2522707411370417
868.051,0.2669347117904871
868.169,0.2833503562801365
868.286,0.30486560574579546
868.404,0.3221094908404371
868.521,0.3349913519200434
868.638,0.3516342930886228
868.756,0.3673622194215066
868.873,0.393912964543476
868.99,0.42246599266047047
869.108,0.4572984962634796
869.225,0.49215819775969427
869.342,0.5214468641310058
869.46,0.5528064557992418
869.577,0.5891717549550402
869.694,0.6176729775611672
869.812,0.638958987641237
869.929,0.6551874847228769
870.046,0.664676084840668
870.164,0.6660150305301313
870.281,0.6477701979739455
870.398,0.6364465816696443
870.516,0.6237779647894481
870.633,0.6103588155705604
870.75,0.589472549529023
870.867,0.5792102986286175
870.985,0.5682292462649269
871.102,0.555719931330648
871.219,0.5250864584194092
871.337,0.49700958746947643
871.454,0.47131577001944425
871.571,0.4454108451126275
871.688,0.41545019627377916
871.806,0.392105111172698
871.923,0.3721001863847924
872.04,0.35435398187070544
872.157,0.33379020513431773
872.275,0.3130457566787798
872.392,0.29686666886843166
872.509,0.2852516465655015
872.626,0.26348598197699
872.744,0.24021601486666647
872.861,0.22241735727282602
872.978,0.20277507106099174
873.095,0.18301557488081982
873.213,0.16328586686939647
873.33,0.14496785902910977
873.447,0.12871300565911745
873.564,0.11295742790010976
873.681,0.10248342197403387
873.799,0.09239471953503434
873.916,0.08666480326664086
874.033,0.08071147573263177
874.15,0.07384040473917192
874.267,0.061613295327226966
874.385,0.05307766498526922
874.502,0.05020371947831245
874.619,0.04751721944980553
874.736,0.045229111561583636
874.853,0.04699661718088875
874.97,0.04671305210430711
875.088,0.04269968136136488
875.205,0.041252258274679765
875.322,0.04480334148210881
875.439,0.043415467270622954
875.556,0.039927768448632245
875.673,0.040706654866539814
875.791,0.039548898535168624
875.908,0.03428498910996229
876.025,0.02534857624834444
876.142,0.024085909405721938
876.259,0.02737909901669586
876.376,0.030210782201083114
876.493,0.029066479599938015
876.61,0.03863684223174034
876.728,0.04269413946269936
876.845,0.04359385229582572
876.962,0.04273225953908327
877.079,0.04321193851416606
877.196,0.04459761879592485
877.313,0.04383226769013533
877.43,0.040800207403873155
877.547,0.03744487951236082
877.664,0.035781984283758665
877.781,0.03712118894476205
877.898,0.042889575498812546
878.016,0.04214308664069748
878.133,0.03747479762387737
878.25,0.03665527935939921
