wavelength_nm,intensity
792.446,0.2767946291043007
792.565,0.24100080907851393
792.684,0.2101179605598302
792.803,0.18414608354824955
792.922,0.16308517804377173
793.041,0.1365129845318745
793.16,0.12400755370208631
793.279,0.1309104136106914
793.398,0.14505844435451437
793.518,0.16974341287772304
793.637,0.19945632966353194
793.756,0.22755784033677195
793.875,0.24362264809172496
793.994,0.24664187971782192
794.113,0.23193810677419807
794.232,0.21891633644119757
794.351,0.2024657106154818
794.47,0.18823230736238367
794.589,0.1825443639319253
794.708,0.17769865314104702
794.827,0.18196563682578107
794.946,0.17783738346861916
795.066,0.17029094618240126
795.185,0.1690546865769358
795.304,0.17343166945631286
795.423,0.16522359522321242
795.542,0.1618013068465951
795.661,0.15868521025805135
795.78,0.15452412132039894
795.899,0.1440347951327245
796.018,0.14449941859666438
796.137,0.13694887686288526
796.256,0.13643746269674653
796.375,0.13270734075303128
796.494,0.12951654321887168
796.613,0.12216711941559655
796.732,0.11703327640591453
796.851,0.11696678435542138
796.97,0.12999512180452005
797.089,0.135710154588883
797.208,0.1557029186600062
797.327,0.17882080910430806
797.446,0.18863125966534247
797.565,0.19491106443414113
797.684,0.1999644602716215
797.803,0.19154295476533312
797.922,0.18870349794242136
798.041,0.16918767067792195
798.16,0.16299980553449656
798.279,0.1430431393423827
798.398,0.1312844372524048
798.517,0.12207663016879813
798.636,0.12596312090249492
798.755,0.13214917833907555
798.874,0.14188587212340992
798.993,0.143492046580572
799.112,0.15728817083799662
799.231,0.1544136496208892
799.35,0.15254307627727723
799.469,0.14568888270472707
799.588,0.1486476023617481
799.707,0.14215049572703156
799.826,0.13720733293902537
799.945,0.14014799302677644
800.064,0.14809197469176
800.183,0.1566302803636207
800.302,0.15847833651055207
800.421,0.16454740652953093
800.54,0.1719208699834929
800.659,0.16851441236244
800.778,0.1681854695228545
800.897,0.16605385331434333
801.016,0.1635684337260475
801.135,0.16050674970014422
801.254,0.16408277827038564
801.373,0.16886961887121238
801.492,0.18055685671210725
801.611,0.1932537886530835
801.729,0.1996725576042855
801.848,0.19704512413036823
801.967,0.1850464159844762
802.086,0.16778088072791586
802.205,0.1516013822960773
802.324,0.13145275539611254
802.443,0.11361184482807993
802.562,0.09610561274053689
802.681,0.0787100536609738
802.8,0.06097026908480243
802.919,0.04876812401008297
803.038,0.042640746725829376
803.157,0.03616788209111159
803.276,0.03706326632313401
803.394,0.030245547313835497
803.513,0.02673457469632087
803.632,0.02658045939303231
803.751,0.028762736426150945
803.87,0.037417516979791454
803.989,0.042636712193588264
804.108,0.04469615293893488
804.227,0.05077470316816479
804.346,0.049575203401485454
804.465,0.05541544715041606
804.583,0.056604299881658646
804.702,0.06130423051894104
804.821,0.06585456354184827
804.94,0.062077916812175706
805.059,0.0628954324774757
805.178,0.06450998654926039
805.297,0.06057955178732176
805.416,0.06002672288297399
805.535,0.06141246799052685
805.653,0.0691013416428167
805.772,0.07733237129901359
805.891,0.09257027785630846
806.01,0.11735286409131951
806.129,0.1405631673390756
806.248,0.16378421602510104
806.367,0.18943190378511882
806.485,0.2162468964315721
806.604,0.23750857152757804
806.723,0.2547298284442341
806.842,0.2597444583135651
806.961,0.2552105013762729
807.08,0.24503128726315992
807.198,0.23142403854684396
807.317,0.21378540143581293
807.436,0.20569945557896624
807.555,0.2046739804170789
807.674,0.2128720198149593
807.793,0.22494958304778645
807.912,0.24497253586979037
808.03,0.26748114213492136
808.149,0.2905233265830221
808.268,0.3158722105605769
808.387,0.3353977043381501
808.506,0.34258030340936285
808.624,0.33882537061920615
808.743,0.3295630900912885
808.862,0.30835276271240797
808.981,0.28140195497428444
809.1,0.267788960031382
809.219,0.2608686772819459
809.337,0.2504013309500287
809.456,0.24471402424800892
809.575,0.2430843744050964
809.694,0.24451746333243063
809.812,0.24760710729550808
809.931,0.24825378407009593
810.05,0.2655456374848056
810.169,0.2781896144810921
810.288,0.28260745767500833
810.406,0.2921468305359226
810.525,0.2978633209382362
810.644,0.2993341707831344
810.763,0.30436439755319733
810.882,0.30774627818263955
811.0,0.32267396980203655
811.119,0.3279348665250449
811.238,0.3411805555338185
811.357,0.34896815017556704
811.475,0.3556073203896622
811.594,0.3593282283876685
811.713,0.3650964348292544
811.832,0.37867458409049404
811.95,0.3882788072228768
812.069,0.3842808911370902
812.188,0.39216452985177325
812.307,0.3922341212992411
812.425,0.3870024082765257
812.544,0.3813413700388975
812.663,0.382302447496681
812.782,0.39009578836501513
812.9,0.4010446285184814
813.019,0.4120763785126862
813.138,0.42853174551440126
813.257,0.440404907258674
813.375,0.44978092310664797
813.494,0.45201109575038756
813.613,0.45010398525233053
813.731,0.4459451748221408
813.85,0.45113383326807033
813.969,0.46030134317993043
814.088,0.4629518112539485
814.206,0.4610044771697913
814.325,0.4745686713093228
814.444,0.4731992434417972
814.562,0.4695222951553053
814.681,0.46246574474683366
814.8,0.46630732350314263
814.918,0.46277403088129665
815.037,0.4552085289752234
815.156,0.44638674249723975
815.274,0.4445903556093327
815.393,0.4377697098039982
815.512,0.4342139894923629
815.631,0.42888427052481726
815.749,0.4348975464177841
815.868,0.43484767595327567
815.987,0.43859107950501286
816.105,0.4330731511595046
816.224,0.4243721876014984
816.343,0.4104259879635783
816.461,0.392146407599947
816.58,0.367819983632523
816.698,0.34598578022432425
816.817,0.3386140082431447
816.936,0.3217396192680288
817.055,0.30961325523183225
817.173,0.3014936529049831
817.292,0.3007193699338476
817.41,0.3032384956859044
817.529,0.303099581197259
817.648,0.3044292380460488
817.766,0.3065641875063669
817.885,0.29925972846519244
818.004,0.3029921289163708
818.122,0.3003371880726443
818.241,0.3150974182315409
818.359,0.33044179810501667
818.478,0.3455896788649778
818.597,0.3373772045119591
818.715,0.34993965618251655
818.834,0.36262395453724394
818.953,0.4631970247325758
819.071,0.5807711792962225
819.19,0.7137368681731249
819.308,0.8086446901883713
819.427,0.8334466200776407
819.546,0.7686959288741191
819.664,0.663970605204075
819.783,0.5251800847394685
819.901,0.45604934577293416
820.02,0.3927814593940103
820.138,0.35188774982308757
820.257,0.32715643798646366
820.376,0.2951103690457348
820.494,0.2700927561089871
820.613,0.25436925423006174
820.731,0.2526296051925071
820.85,0.26672409395696034
820.969,0.27565600857880257
821.087,0.2964547019898938
821.206,0.3220326141413703
821.324,0.3311902733790847
821.443,0.3351459557775994
821.561,0.33062349129348
821.68,0.3193582403556465
821.798,0.30102430982773143
821.917,0.27408335276375695
822.035,0.2627598186705532
822.154,0.24874705053518137
822.273,0.24212064623113638
822.391,0.24141613886854407
822.51,0.23981522015856221
822.628,0.23896869891034841
822.747,0.234221310699869
822.865,0.2422797988806653
822.984,0.24638898761797268
823.102,0.24878169638514164
823.221,0.2589400199383023
823.339,0.271006090717958
823.458,0.2755421420016411
823.576,0.277950447669543
823.695,0.28042852894598713
823.813,0.29043416704986724
823.932,0.2828990380557485
824.05,0.26939111697041673
824.169,0.26434410408796194
824.287,0.25903112300353454
824.406,0.2485309410911281
824.524,0.2510164103731827
824.643,0.2557396244656613
824.761,0.2592339669582847
824.88,0.2548518745807613
824.998,0.25746293995819164
825.117,0.2631178636470869
825.235,0.25729511017554524
825.354,0.24222503634838033
825.472,0.24206477873241689
825.591,0.23674358875286666
825.709,0.23215791577630257
825.828,0.23893663720748343
825.946,0.24721922822512699
826.064,0.24319586456446185
826.183,0.23919384403111565
826.301,0.23130080720965115
826.42,0.22824773495247913
826.538,0.2342630291372574
826.657,0.23815468215381574
826.775,0.24642167627072664
826.894,0.2434753196501486
827.012,0.2290775543335259
827.13,0.2215539177925792
827.249,0.2134950612896383
827.367,0.20167817259956555
827.486,0.20233141649025388
827.604,0.2046863643398599
827.723,0.2110587454624726
827.841,0.21434786557703195
827.959,0.22420738534773038
828.078,0.24048133576723835
828.196,0.2617036081666573
828.315,0.2723396894159548
828.433,0.27969303350571945
828.552,0.2851911672977736
828.67,0.27228249555639306
828.788,0.24534892649802853
828.907,0.21486499844398244
829.025,0.17891856214740887
829.143,0.14863326254212633
829.262,0.11526328951441112
829.38,0.09122112408697682
829.499,0.08544825546505838
829.617,0.07627640456497559
829.735,0.07624617301327036
829.854,0.0769043279600225
829.972,0.08756802089616203
830.091,0.10501766909405888
830.209,0.1261402967666425
830.327,0.15301779566586987
830.446,0.18993686552397993
830.564,0.2185112183566903
830.682,0.25181733216380714
830.801,0.2691542311151478
830.919,0.2762956823242032
831.037,0.2661122603769844
831.156,0.245267125444516
831.274,0.22177872628256629
831.392,0.1982509244240279
831.511,0.18738616418163168
831.629,0.1873464739374247
831.747,0.1819028680340019
831.866,0.17771604397385127
831.984,0.17026618410246214
832.102,0.16689121976993804
832.221,0.15771873972597966
832.339,0.15133043229850013
832.457,0.1590177108477488
832.576,0.15792030965531195
832.694,0.1549745158846404
832.812,0.15123681436571515
832.93,0.14474008597212673
833.049,0.14071522288314095
833.167,0.13180492382187786
833.285,0.13022667973592564
833.404,0.13720769726889234
833.522,0.14245253544279357
833.64,0.14493528277356776
833.759,0.1540946543350673
833.877,0.16976470212656458
833.995,0.1918311209976017
834.113,0.20985794257880097
834.232,0.23045907367045165
834.35,0.24199430098868902
834.468,0.2408279048837078
834.586,0.23089769234582552
834.705,0.22231373860805198
834.823,0.21668006177734556
834.941,0.20982654313141896
835.059,0.20133945435609255
835.178,0.2048463822444154
835.296,0.20020844439208188
835.414,0.19269903502585845
835.532,0.1956354447031598
835.651,0.2019801876353701
835.769,0.2115969961634538
835.887,0.22881524157507677
836.005,0.25399036902904826
836.124,0.2786647538805404
836.242,0.2939301031424937
836.36,0.30708248279988676
836.478,0.3149483339983171
836.596,0.32636863678483896
836.715,0.3262349196862833
836.833,0.3320017564018617
836.951,0.34775553492361083
837.069,0.35864225952716294
837.188,0.3658801302487138
837.306,0.38753938792167075
837.424,0.3900448306050356
837.542,0.3907919279531368
837.66,0.38987015692281063
837.779,0.3917632160300284
837.897,0.3963849118760027
838.015,0.39426300037875067
838.133,0.39743500534607146
838.251,0.408457997608659
838.369,0.4062671313923768
838.487,0.40844996449742266
838.606,0.4140247130671322
838.724,0.4153037468191785
838.842,0.41038506475365244
838.96,0.40197431870296707
839.078,0.39772384070042155
839.196,0.39712550013792647
839.315,0.39944378001249553
839.433,0.4045908451463167
839.551,0.4057336112393275
839.669,0.40494892875754857
839.787,0.4059915463300634
839.905,0.3992225793039002
840.023,0.3939936010027393
840.142,0.40262780478464677
840.26,0.39669286150294125
840.378,0.4016511220489428
840.496,0.3957416263421174
840.614,0.3910667484617328
840.732,0.39033378201922697
840.85,0.38444234588167125
840.968,0.388276808685387
841.087,0.39492199717908527
841.205,0.39832056765178997
841.323,0.4099887790710148
841.441,0.41437405873745753
841.559,0.4301885830831139
841.677,0.44554423019141637
841.795,0.46223792720470464
841.913,0.4830746535863754
842.031,0.49662352287819067
842.149,0.5056361567252501
842.267,0.5083254786593608
842.385,0.5170967709898154
842.504,0.5236787509910693
842.622,0.5345219684504714
842.74,0.536662936190392
842.858,0.5424470115857281
842.976,0.5415080018756441
843.094,0.5331998670139909
843.212,0.5301413205832484
843.33,0.5238279472363898
843.448,0.5199624664150945
843.566,0.5207735931451517
843.684,0.5191163051118395
843.802,0.526249717642955
843.92,0.5377847397388156
844.038,0.5620858250846075
844.156,0.5829313760285355
844.274,0.6106481826348465
844.392,0.6598579288959384
844.51,0.6939555096810563
844.628,0.6996868429252299
844.746,0.6754060451563753
844.864,0.6241779073685199
844.982,0.5578361675480441
845.1,0.4801792866905589
845.218,0.43633156128506645
845.336,0.40809961707132025
845.454,0.38966663096543686
845.572,0.3655128658486046
845.69,0.34459012185203275
845.808,0.32152896067602
845.926,0.3059428193986583
846.044,0.2939858306550036
846.162,0.2846047932008246
846.28,0.2602778203969047
846.398,0.23769113335897868
846.516,0.21692025392217448
846.634,0.19672755699523176
846.752,0.18180915995798225
846.87,0.17505848276049701
846.988,0.16968176771201343
847.106,0.15374304971726588
847.224,0.14292991333387872
847.342,0.131448913353036
847.46,0.13129200372898742
847.578,0.1268050651900326
847.696,0.13100374401989417
847.814,0.13600005825155165
847.932,0.1447458714777396
848.05,0.15177500173435488
848.168,0.15922039087870984
848.285,0.16560209307260962
848.403,0.17386647736291388
848.521,0.17814035451168841
848.639,0.18671323003617524
848.757,0.2006785287667064
848.875,0.22104758658238763
848.993,0.23708234777332948
849.111,0.2504147406899073
849.229,0.2609717061655299
849.347,0.26297746559192686
849.465,0.26745163978169334
849.582,0.2708348518096645
849.7,0.2762949143036565
849.818,0.2803348379414363
849.936,0.2823660449427128
850.054,0.29156936361261604
850.172,0.3023553572621589
850.29,0.3124345650416449
850.408,0.32023416264558124
850.525,0.32766764352704913
850.643,0.3255172393528666
850.761,0.3226378852917962
850.879,0.31502281963449064
850.997,0.3135168137274334
851.115,0.31631062708560065
851.233,0.3226498622472245
851.35,0.33102736606779304
851.468,0.34802338887759277
851.586,0.37692148872566866
851.704,0.4108023879131706
851.822,0.440047724024933
851.94,0.4840165344286136
852.057,0.5306080868239686
852.175,0.5803420042722598
852.293,0.6286369024055569
852.411,0.6726328021631418
852.529,0.7200879303253956
852.647,0.7578524577954053
852.764,0.7884580078289847
852.882,0.8184733383032481
853.0,0.8393866458655586
853.118,0.8483469812398327
853.236,0.8436633120308124
853.353,0.8307994788321087
853.471,0.802140089638474
853.589,0.7783264112357178
853.707,0.7409524589799177
853.824,0.7122388910784737
853.942,0.6815141438719897
854.06,0.6573368114153018
854.178,0.6300286063588492
854.296,0.6002125838424386
854.413,0.5538827270078677
854.531,0.5088071893480322
854.649,0.44800422952278285
854.767,0.40245668039339705
854.884,0.35725800930672225
855.002,0.31798533960906156
855.12,0.2815710071930946
855.238,0.25117215312297814
855.355,0.21773190340993354
855.473,0.18809319302817085
855.591,0.15778518568161154
855.708,0.13318792271499402
855.826,0.10987979487841057
855.944,0.08795639958257513
856.062,0.06834677941474174
856.179,0.06057559218438595
856.297,0.05119006647397225
856.415,0.04724221750168779
856.532,0.040898234011448674
856.65,0.03215447517814906
856.768,0.03150756897241964
856.886,0.03180203997318533
857.003,0.023042111005014815
857.121,0.023000787992327635
857.239,0.01773618483816976
857.356,0.019619928405945872
857.474,0.01299526628974836
857.592,0.011068985680047817
857.709,0.010661605329305594
857.827,0.028990169745870382
857.945,0.046110429668188346
858.062,0.06418283538187558
858.18,0.08207880863957745
858.298,0.08795569598288885
858.415,0.07759932577490143
858.533,0.07019850272003558
858.651,0.053572253927813084
858.768,0.04864951602985716
858.886,0.04624494077340463
859.003,0.038780621676070846
859.121,0.03558961698259115
859.239,0.030751567733811006
859.356,0.021367294542328875
859.474,0.028851276611842794
859.592,0.032088548981075486
859.709,0.03369676549567802
859.827,0.04172381998793247
859.944,0.03962817127974019
860.062,0.041173342361922514
860.18,0.04035426654075353
860.297,0.031136466073885774
860.415,0.04162925153968863
860.532,0.04503558607830173
860.65,0.05345145468551926
860.768,0.06469461131862678
860.885,0.0759376552244214
861.003,0.08658937060452816
861.12,0.0854910671390208
861.238,0.08217612173646582
861.356,0.08675131180080498
861.473,0.09218348185863057
861.591,0.0987443749958154
861.708,0.10275230174986755
861.826,0.11070952794740857
861.943,0.1085174633456264
862.061,0.09956788345653711
862.178,0.08942952448039759
862.296,0.08248396388599753
862.414,0.08678539102185251
862.531,0.09180965599583255
862.649,0.09502655918583988
862.766,0.10298999251209151
862.884,0.09753122948136991
863.001,0.09467168582452952
863.119,0.08184256891514972
863.236,0.07862653766660518
863.354,0.08909378478725058
863.471,0.09332609736960522
863.589,0.10821414924012662
863.706,0.1235313712836712
863.824,0.13414237234657755
863.941,0.14307007096440014
864.059,0.1360986790366566
864.176,0.13531515225233856
864.294,0.13693190640187244
864.411,0.12779829149883276
864.529,0.13073831954213175
864.646,0.13352566213615014
864.764,0.14402936614542447
864.881,0.1531712144538574
864.999,0.1586486119795559
865.116,0.16595330955954807
865.233,0.1781661055333505
865.351,0.18844078136870418
865.468,0.20429586410841005
865.586,0.2290502100505404
865.703,0.24811168722513888
865.821,0.2514424586762747
865.938,0.2472358226258275
866.056,0.23299709584603534
866.173,0.2204699236993079
866.29,0.21651365895010038
866.408,0.2250234223340925
866.525,0.23932291944806328
866.643,0.24226212660185031
866.76,0.24253754728834942
866.878,0.24010156991584966
866.995,0.23092608964768457
867.112,0.22544050773713387
867.23,0.22730352874034593
867.347,0.23438904882056433
867.465,0.23295866110058427
867.582,0.23600047944340355
867.699,0.24675619653294206
867.817,0.25281888828088284
867.934,0.26197058726346273
868.051,0.2758448636100816
868.169,0.28632394093398783
868.286,0.2980433823109208
868.404,0.3033442885914829
868.521,0.3224238253353502
868.638,0.35016046287552505
868.756,0.3721418440452361
868.873,0.3949941889874562
868.99,0.4240237275094425
869.108,0.45443728574910147
869.225,0.47998379007056347
869.342,0.49614916904590367
869.46,0.5194464361037698
869.577,0.5506381976010526
869.694,0.573650615998164
869.812,0.5864363928515244
869.929,0.5992591097329365
870.046,0.6145157640182034
870.164,0.6154060309493858
870.281,0.6040051192134803
870.398,0.5922733890041336
870.516,0.5870972824397055
870.633,0.5710714791917202
870.75,0.5497936248442872
870.867,0.5234320017474202
870.985,0.5050108429026565
871.102,0.4788683973055634
871.219,0.4588071012153019
871.337,0.43375397600097954
871.454,0.42145501113866035
871.571,0.4004858112478377
871.688,0.38468000638913835
871.806,0.3617620147962074
871.923,0.3475191835688537
872.04,0.3268413994548839
872.157,0.30914098160188586
872.275,0.2866835090253337
872.392,0.27084651036516894
872.509,0.2549126467425574
872.626,0.24030451968224797
872.744,0.21492714311058286
872.861,0.19630076188775447
872.978,0.17924556319139412
873.095,0.1673693564278901
873.213,0.15744276225600645
873.33,0.1463127440591478
873.447,0.1365084624245909
873.564,0.12101870002811246
873.681,0.09999532142948069
873.799,0.08397854796613036
873.916,0.07397725284863058
874.033,0.07809689912104911
874.15,0.0758920382108026
874.267,0.07203359008401075
874.385,0.06624574246822311
874.502,0.05827184482338388
874.619,0.05251362086540838
874.736,0.047950781943036834
874.853,0.048305134231886426
874.97,0.05424933266608099
875.088,0.05842223070256437
875.205,0.0632415178824359
875.322,0.06091637783230222
875.439,0.05768408698205679
875.556,0.04561763282038264
875.673,0.04454445183224637
875.791,0.04419658971911415
875.908,0.047265691009471686
876.025,0.0511523198036951
876.142,0.053618537300169286
876.259,0.0503521579798656
876.376,0.04853527072100704
876.493,0.03957714472362049
876.61,0.04212136037047798
876.728,0.0438280620190442
876.845,0.05075172054690198
876.962,0.051214164826071024
877.079,0.055780422532455805
877.196,0.05702566541405423
877.313,0.059099909095549574
877.43,0.05211460416034573
877.547,0.053408856922574424
877.664,0.05211244618094398
877.781,0.05014311747186593
877.898,0.05152793727452233
878.016,0.05404473127921697
878.133,0.060032350309683014
878.25,0.060305177467066345
