wavelength_nm,intensity
792.446,205.7904450951985
792.565,172.28680873156202
792.684,145.16325894801219
792.803,124.41979574454894
792.922,110.0564191211721
793.041,102.01832388307693
793.16,98.80360526835834
793.279,101.1767654415185
793.398,106.14992561467861
793.518,120.6365057012587
793.637,148.93174379649676
793.756,166.62351868827164
793.875,178.40187366662667
793.994,184.97849704325
794.113,173.91615938091235
794.232,157.78802085277385
794.351,144.29624596099893
794.47,134.41745808221106
794.589,125.84170050645346
794.708,117.23390829866133
794.827,116.16031522506825
794.946,115.46767453242748
795.066,115.26161392636686
795.185,120.09191695666992
795.304,126.72741479216768
795.423,122.33001219476509
795.542,117.33607280082576
795.661,112.01053167528474
795.78,100.01312907788217
795.899,92.3758996406527
796.018,86.84516370991676
796.137,81.86680873156178
796.256,82.18369184844485
796.375,80.57763124238423
796.494,79.14386500861806
796.613,72.89884336359647
796.732,62.562046826799936
796.851,64.71183037658346
796.97,69.413994878748
797.089,69.14040180515485
797.208,80.76291262766566
797.327,98.45382171857469
797.446,111.09624596099894
797.565,124.54299920775219
797.684,135.84083470558767
797.803,142.5230857878388
797.922,141.27806414281724
798.041,124.48585635060948
798.16,107.66507712983025
798.279,89.27979574454884
798.398,72.83563990039296
798.517,69.27979574454875
798.636,67.6183238830769
798.755,72.45122431597733
798.874,84.27892994368301
798.993,85.94213340688647
799.112,84.77503383978687
799.231,88.1421334068865
799.35,86.38975245450551
799.469,88.70317236792543
799.588,83.13087799563108
799.707,84.15252301727608
799.826,81.72481738957046
799.945,76.722219986973
800.064,78.40187366662661
800.183,92.5075013722543
800.302,96.87286933762226
800.421,112.61053167528459
800.54,120.14559661034954
800.659,127.1776312423842
800.778,129.62784769260065
800.897,129.8157264804794
801.016,124.05815072290366
801.135,122.43823730299025
801.254,121.74992561467857
801.373,130.1109645757175
801.492,126.87373513848806
801.611,134.6555533203063
801.729,143.44083470558775
801.848,148.2901853549384
801.967,142.08931955407263
802.086,129.13693860169167
802.205,110.2546875194405
802.324,89.63125905579935
802.443,58.31678354870134
802.562,40.21692222283225
802.681,22.668795359799674
802.8,14.079720830845648
802.919,5.331286709956841
803.038,-4.084864853731763
803.157,-7.6605551465083375
803.276,-6.144972740477641
803.394,-9.424945864009594
803.513,-6.763302984800012
803.632,-8.733232806609522
803.751,-14.486349956117895
803.87,-16.163177213307353
803.989,-17.489085945032038
804.108,-8.291337538760624
804.227,2.259828371623018
804.346,4.550361056054037
804.465,13.772874374550478
804.583,18.911976422719096
804.702,19.672371507906334
804.821,18.643699830510215
804.94,15.395525407324463
805.059,17.77046694357284
805.178,19.576954252324526
805.297,13.175157702006086
805.416,9.305012043910683
805.535,8.474301618258096
805.653,12.366549114805643
805.772,22.353736972524814
805.891,45.17651441421013
806.01,70.73040024234749
806.129,103.94597212349252
806.248,133.87262753874623
806.367,153.72710149388428
806.485,161.339151206598
806.604,167.84990221801294
806.723,178.11822898700362
806.842,185.84716181660025
806.961,178.32934139944376
807.08,173.78381535458152
807.198,172.6833109547411
807.317,162.71873729083154
807.436,151.64940172216012
807.555,145.87097524439804
807.674,152.06311153719895
807.793,162.2777586525107
807.912,180.59543607085283
808.03,207.1719879480695
808.149,239.91737099411725
808.268,269.8696804470913
808.387,286.5414704195458
808.506,298.48858506732506
808.624,292.758643438048
808.743,282.08064986071906
808.862,266.2260329067668
808.981,235.73332071471947
809.1,203.57307605513952
809.219,186.884692867421
809.337,163.0690369524296
809.456,158.70100008505705
809.575,157.7424870272082
809.694,171.41687440225982
809.812,184.86788515393474
809.931,193.93274871946235
810.05,212.4339759213535
810.169,235.88325507129647
810.288,245.3325342212393
810.406,255.9653631547319
810.525,260.60511849515103
810.644,253.6483370390334
810.763,253.09501878637911
810.882,258.7209213129457
811.0,271.35548184817026
811.119,281.85324584659827
811.238,298.96919166320805
811.357,313.553535748216
811.475,315.09632139166536
811.594,308.01399881000657
811.713,310.7463948430665
811.832,314.8935094908451
811.95,312.9852128832125
812.069,306.7548383535021
812.188,312.37121707054496
812.307,312.7676823676744
812.425,308.28016498082104
812.544,305.334638935959
812.663,303.5614072633913
812.782,303.8409894436374
812.9,299.4668919702039
813.019,297.97331397728993
813.138,307.697052001692
813.257,315.0251190304233
813.375,327.56270986867844
813.494,336.4059284125615
813.613,345.81538072267824
813.731,354.21271182067375
813.85,367.17367928230544
813.969,377.66798007727044
814.088,381.4731033830579
814.206,386.76307517369366
814.325,399.3534798647622
814.444,405.8313304432766
814.562,406.25550136811125
814.681,403.75932597259947
814.8,406.5774362913735
814.918,401.72281933742045
815.037,390.72361363887876
815.156,392.64215685808597
815.274,393.8862412028344
815.393,401.74937316663056
815.512,404.41163932956084
815.631,404.643602462188
815.749,398.9855223047719
815.868,393.9767927967065
815.987,388.6078901284679
816.105,385.20435542559727
816.224,370.7843705062766
816.343,365.786030608601
816.461,347.6006777239123
816.58,321.38588760978644
816.698,287.5148204393834
816.817,270.43422945945656
816.936,257.4713873972786
817.055,249.52499555155083
817.173,249.40284613006537
817.292,258.205372033255
817.41,255.88495421350098
817.529,258.63553206474245
817.648,246.9107852406592
817.766,248.0648262953637
817.885,240.73834786954865
818.004,237.49412052598456
818.122,247.1667762993036
818.241,249.63596886915946
818.359,253.6596577890566
818.478,257.62979649393446
818.597,232.53724117409854
818.715,239.17842467729344
818.834,244.2750861891497
818.953,345.26126410710197
819.071,473.87340990466726
819.19,600.2750993047111
819.308,701.2732860910141
819.427,733.7708363054833
819.546,680.7591021536616
819.664,586.8863077086643
819.783,452.0095512203643
819.901,380.32084555442555
820.02,312.8071094218566
820.138,271.7493240601824
820.257,245.3473074917709
820.376,214.48554990647406
820.494,186.7597171216413
820.613,207.28303691141036
820.731,241.12591239009373
820.85,285.92096338469787
820.969,332.9269653167229
821.087,358.63136407361475
821.206,366.98740640862013
821.324,340.6851356117826
821.443,295.0322132096847
821.561,284.6258335107792
821.68,266.00340342577647
821.798,252.5784126314901
821.917,239.71773507147486
822.035,222.92372417812638
822.154,208.69421544928005
822.273,196.73137338710052
822.391,187.22394258033214
822.51,191.44118709823917
822.628,191.1960939538085
822.747,197.6228622812394
822.865,200.40807216711192
822.984,204.3240179837204
823.102,200.99234475270978
823.221,201.53339879442643
823.339,203.29003725172728
823.458,216.82589648824884
823.576,218.36608472909913
823.695,229.9391734028498
823.813,237.95122311556156
823.932,236.70959317459366
824.05,227.2445866102493
824.169,215.95447182079693
824.287,201.18470335169076
824.406,204.78549765314725
824.524,200.3663785346902
824.643,203.0831901521637
824.761,209.8458892155245
824.88,205.3029605732576
824.998,206.90721807817687
825.117,210.43095610257672
825.235,208.86551663779906
825.354,207.7468304197747
825.472,205.07230004590633
825.591,201.684349758618
825.709,200.92410509903533
825.828,194.57944485503714
825.946,194.77417855043277
826.064,198.38016765708386
826.183,205.39135156892965
826.301,208.02591210415198
826.42,212.90636008526167
826.538,212.31408079364397
826.657,214.2585980388227
826.775,209.3191326000188
826.894,194.33897452052213
827.012,173.48002856223752
827.13,165.07129905416932
827.249,156.4478509313824
827.367,146.22180540599814
827.486,144.05896334381742
827.604,154.54633773185307
827.723,162.12721861339537
827.841,162.44922503606315
827.959,164.02058210808156
828.078,176.01358420174506
828.196,189.76849105731307
828.315,197.67491306439632
828.433,210.44453853468303
828.552,206.38039777120355
828.67,190.67469856616577
828.788,160.8961351572675
828.907,135.736341842303
829.025,101.5078602052871
829.143,76.95909503727148
829.262,57.25049377194147
829.38,44.09140263980775
829.499,31.807393145619635
829.617,26.006039370799897
829.735,19.594628619951255
829.854,32.44756399195795
829.972,40.05483891134129
830.091,58.57737959512848
830.209,86.7228663654395
830.327,109.31139695841709
830.446,141.6003937735574
830.564,176.66860241706144
830.682,199.05663020196306
830.801,218.04985279205965
830.919,225.98766412674522
831.037,217.50989104584636
831.156,200.36891450174414
831.274,167.44092497062888
831.392,141.06791379449194
831.511,135.86719699064935
831.629,129.9530602733869
831.747,130.7272352444362
831.866,141.88236259643793
831.984,146.73619124714094
832.102,148.42292033074432
832.221,127.03322036780531
832.339,107.8889896970777
832.457,111.09176980357114
832.576,104.60499507972804
832.694,98.87333388869885
832.812,101.45113215512717
832.93,106.83271639545383
833.049,109.31819458371683
833.167,98.39007952817518
833.285,97.69041466879077
833.404,105.63865833803024
833.522,108.78690068619532
833.64,110.43817333739084
833.759,120.16217326131334
833.877,129.3147446138072
833.995,149.7305194295045
834.113,173.909930608838
834.232,198.58717728600723
834.35,210.86961876837114
834.468,218.0879909866656
834.586,217.49597359457044
834.705,210.85373975225875
834.823,194.81583491427605
834.941,188.48615518451862
835.059,178.2421897404755
835.178,171.04757494578314
835.296,161.66248396061445
835.414,160.87392977198238
835.532,171.6767175746922
835.651,183.88470018259673
835.769,198.96800746582596
835.887,208.26949656723724
836.005,216.61687311453585
836.124,230.3304834280682
836.242,242.9453924428991
836.36,257.5066218040505
836.478,278.6894961868469
836.596,298.20830130557397
836.715,312.5608726580676
836.833,313.1385522356694
836.951,324.64869934573875
837.069,333.20559970256136
837.188,337.73479443167827
837.306,336.23368613049234
837.424,345.3031405998694
837.542,346.4202141168656
837.66,350.0204045169787
837.779,354.8197291162262
837.897,362.822516918937
838.015,359.524006020349
838.133,365.08696698323274
838.251,365.4490621452506
838.369,371.2336681297793
838.487,365.8035554995895
838.606,374.11543421139083
838.724,377.03164192752126
838.842,370.39633449213653
838.96,356.6631915589163
839.078,351.12745122309866
839.196,351.62980612537626
839.315,352.7841090796022
839.433,353.5115722069884
839.551,362.32128641662564
839.669,361.06260235786465
839.787,356.0766455718308
839.905,347.16341605852415
840.023,344.12031641534736
840.142,349.3785154734693
840.26,345.96831626319295
840.378,346.1252166200161
840.496,344.32021221493454
840.614,342.32473161937673
840.732,335.6799003744684
840.85,332.99351068800166
840.968,341.08287857729255
841.087,351.3047139990508
841.205,361.3767658710255
841.323,375.66613376031614
841.441,388.14251463661986
841.559,399.5141336081617
841.677,408.2874841814352
841.795,413.40455769843174
841.913,418.26189095568805
842.031,428.94433243805247
842.149,443.2267739204168
842.267,452.9654924590583
842.385,466.146635240124
842.504,474.60483429824603
842.622,485.0214749148095
842.74,475.5653882586459
842.858,479.26514575832647
842.976,473.691310184414
843.094,461.76249625552316
843.212,450.8735091664592
843.33,456.7871194799926
843.448,462.2660977588939
843.566,476.78143967415895
843.684,478.2266517192941
843.802,500.7974048899704
843.92,508.0997597922484
844.038,504.58999348240525
844.156,501.897543189878
844.274,504.7514132436711
844.392,510.3290928212738
844.51,511.838374130478
844.628,498.2749281669549
844.746,490.8984951904447
844.864,469.0450059368781
844.982,435.172469064264
845.1,406.1414906332085
845.218,376.0170057086465
845.336,356.70377619533997
845.454,332.34725663874343
845.572,316.763897255307
845.69,299.9147370060696
845.808,283.69761138886645
845.926,270.7107888019664
846.044,263.7213688124689
846.162,253.29125618227863
846.28,236.5269444178893
846.398,213.55916945003693
846.516,188.71433820512834
846.634,158.54223423294707
846.752,139.45411294474832
846.87,123.23438992494779
846.988,117.19821668869689
847.106,115.71269280309531
847.224,107.47207280768004
847.342,102.4560623400194
847.46,96.29815553208083
847.578,86.37308089767701
847.696,87.2703944060585
847.814,91.23170891914333
847.932,98.08316172398465
848.05,111.06225435961085
848.168,111.86460586377811
848.285,120.20202230301008
848.403,120.35502315782641
848.521,117.72534002995874
848.639,127.24803785447226
848.757,135.58891749716764
848.875,146.9453815554475
848.993,166.16764647952846
849.111,169.66869928239734
849.229,177.53944905496328
849.347,173.72361874094918
849.465,175.15973647888313
849.582,175.55862477958783
849.7,180.06054338332262
849.818,194.09406371865913
849.936,194.34922907564055
850.054,195.68491391314143
850.172,203.10717883722236
850.29,201.90346973532922
850.408,198.77941431308972
850.525,197.5852290207204
850.643,207.6196151569224
850.761,218.49988873901194
850.879,214.24076838170768
850.997,229.69853114128665
851.115,240.10174844632024
851.233,241.41578826217636
851.35,245.72636487456907
851.468,256.8248202748406
851.586,284.8851804370167
851.704,312.8381812918334
851.822,345.51412586959395
851.94,390.04201849930234
852.057,433.225322384422
852.175,481.4467215076369
852.293,524.5581639208949
852.411,571.4782643428108
852.529,620.0044253707874
852.647,657.5193309875085
852.764,686.8099941799871
852.882,706.3932980651066
853.0,725.7194590930835
853.118,727.4464859219262
853.236,722.1406123178683
853.353,709.3957776748493
853.471,682.7704235513108
853.589,662.1597880424907
853.707,630.0617066462246
853.824,604.5939282802619
853.942,586.8153274034768
854.06,557.7752546652198
854.178,538.3230607148416
854.296,506.91588840948504
854.413,468.588369783782
854.531,428.946565443793
854.649,378.7601723592153
854.767,340.62139832225654
854.884,307.45578445845797
855.002,263.5620320665207
855.12,227.64143984774353
855.238,197.32431083242938
855.355,162.82449783443127
855.473,131.27879739054572
855.591,103.17465538821865
855.708,85.47743979281793
855.826,66.30936091346979
855.944,40.816763534774516
856.062,30.183785765540193
856.179,26.09834710064689
856.297,17.230828566075512
856.415,12.554316813492665
856.532,3.5807039900720676
856.65,-5.648799009711389
856.768,-14.740735940829055
856.886,-29.846074969985622
857.003,-33.00697930677823
857.121,-33.79717051829249
857.239,-30.99210740395442
857.356,-32.65155121828793
857.474,-29.79092734819089
857.592,-33.21104450479594
857.709,-21.576741243382994
857.827,-25.619118547743053
857.945,-19.8552159182054
858.062,-13.901191526174284
858.18,-1.5072089316358301
858.298,1.3913419532121907
858.415,10.799043285644455
858.533,2.9498757451325908
858.651,9.207146458430731
858.768,1.9829087999394526
858.886,-1.3556844887611152
859.003,-0.12681971565806371
859.121,0.09180903807409457
859.239,-2.43064315813134
859.356,-5.481299675794901
859.474,-7.228690374805662
859.592,-0.49522295235755376
859.709,-2.930976285139857
859.827,-5.807507960224728
859.944,-9.64271509011474
860.062,-13.25587004352833
860.18,-14.148259727006181
860.297,-12.074879649069805
860.415,-5.974918889533418
860.532,-1.0704289796446815
860.65,9.083798182817045
860.768,20.48667301210061
860.885,23.055973356840934
861.003,34.45749344658128
861.12,45.62177833937011
861.238,52.95934949618163
861.356,48.44359853003054
861.473,50.411830247862
861.591,52.906468892100435
861.708,52.28249281772402
861.826,50.83773752256825
861.943,52.2302116646418
862.061,46.89627888030837
862.178,46.73031146394021
862.296,40.95655183977985
862.414,45.82694805977536
862.531,44.72851311093979
862.649,42.54785448017977
862.766,42.29560471096244
862.884,35.92097876167024
863.001,28.046838940666092
863.119,29.81644815304635
863.236,31.407755614926707
863.354,40.26196828201354
863.471,44.93203569808897
863.589,48.95104826340883
863.706,53.467896326564144
863.824,65.31115131612651
863.941,75.74228509356767
864.059,76.67991237750243
864.176,82.53702018091771
864.294,83.55949594970087
864.411,79.4235301600425
864.529,73.81743450025422
864.646,66.87887130799837
864.764,77.36455053998492
864.881,88.22598734772893
864.999,94.76274883079766
865.116,111.83803845239439
865.233,129.1981765588396
865.351,140.83969994667015
865.468,145.91845277173024
865.586,150.3504523500373
865.703,156.3893783352708
865.821,162.09583678803688
865.938,165.10792294643068
866.056,161.73645932127468
866.173,159.7805801117031
866.29,160.3294628068934
866.408,166.60215502589307
866.525,173.5146740847195
866.643,179.36658708293982
866.76,190.0730455357056
866.878,192.60720961617704
866.995,182.91107066634575
867.112,176.5595204611033
867.23,174.14563259352315
867.347,176.12308671728485
867.465,180.8390689795746
867.582,186.57756206437517
867.699,194.43034086346142
867.817,199.59221057163882
867.934,205.89174261747877
868.051,222.39820107024525
868.169,231.22587164422407
868.286,247.62150758616838
868.404,257.7426846536539
868.521,271.79459765187556
868.638,288.02313402672075
868.756,313.2663890162846
868.873,332.75206824827285
868.99,365.27151371402715
869.108,389.91476870359105
869.225,420.4861622212934
869.342,447.0973825788225
869.46,484.1622825900311
869.577,519.8877886618459
869.694,555.6349397553056
869.812,562.9206189872934
869.929,570.6911467041298
870.046,571.0417610010529
870.164,560.9083926139933
870.281,548.4252406771502
870.398,534.7801839784024
870.516,531.1870753316025
870.633,521.3584688493046
870.75,497.2060528431971
870.867,471.5558013392542
870.985,457.6890996188612
871.102,434.12542820149866
871.219,411.6284234508031
871.337,384.93488190357084
871.454,369.7945871095855
871.571,356.27420573551353
871.688,326.2360754436926
871.806,305.44383259775907
871.923,291.44726074749644
872.04,274.02817807472286
872.157,254.1987057915597
872.275,235.484385023548
872.392,222.45144953692153
872.509,215.26353569531673
872.626,189.5795179576081
872.744,175.88943961383885
872.861,156.31711018781846
872.978,138.40798422500137
873.095,123.98803575136175
873.213,116.15163706127183
873.33,95.49013014607365
873.447,79.87451067676284
873.564,60.774908523469264
873.681,50.74024143511066
873.799,44.27440551558319
873.916,39.47263886012513
874.033,40.756645850513266
874.15,34.80309666716637
874.267,19.705878256166507
874.385,13.66107101687221
874.502,4.444296461773307
874.619,0.7723156754480465
874.736,1.571308075910465
874.853,3.52378773272273
874.97,5.445447124296246
875.088,8.966661704490921
875.205,15.972726462712597
875.322,19.8598021578746
875.439,17.123500901033257
875.556,11.398150845372264
875.673,6.923283493790311
875.791,0.032059416512162375
875.908,-1.6223261262522362
876.025,-0.7245946421214715
876.142,-3.140111493999868
876.259,-1.0989332330794443
876.376,-6.060278927606783
876.493,-12.208399774790486
876.61,-9.746047589852072
876.728,-1.567332637250141
876.845,10.352907519820963
876.962,19.058745387670747
877.079,20.66995448885895
877.196,21.216849542582835
877.313,16.010930686644123
877.43,5.543595805721442
877.547,-2.137218178443195
877.664,-2.5631218689229556
877.781,-3.30895884378548
877.898,2.603593483622259
878.016,-0.7510560277413632
878.133,1.0339533149441333
878.25,10.630224335845458
878.367,14.318198510046038
878.484,9.716058293219227
878.601,1.917435042826014
878.718,-4.940282236900446
878.835,-6.871289071519427
878.952,-12.214922335082866
879.069,-10.113995619457935
879.186,-8.995072294014722
879.303,-1.5092784166949307
879.42,2.538249801528065
879.537,-5.14587913378336
879.654,-10.280952264393147
879.771,-16.823458592122172
879.888,-20.83132135976793
880.005,-27.1303372352093
880.122,-34.30848256496512
880.239,-42.365757349035434
880.356,-51.302161587420244
