wavelength_nm,intensity
792.446,276.138970506413
792.565,228.77472808217055
792.684,188.57931682675928
792.803,155.55273674017917
792.922,129.6949878224301
793.041,98.75126487870722
793.16,80.00234712978948
793.279,90.95472808217046
793.398,106.19628652372892
793.518,130.89845102589342
793.637,162.73481466225704
793.756,191.37637310381547
793.875,207.73221725965962
793.994,213.42572375316612
794.113,197.27680600424844
794.232,185.0274553548978
794.351,169.76078868823114
794.47,162.73135145879394
794.589,153.68719561463803
794.708,153.12875405619639
794.827,155.95819128563357
794.946,151.35039907784133
795.066,147.02226054970285
795.185,147.70104842849076
795.304,145.78589691333923
795.423,139.55992288736525
795.542,132.20754193498428
795.661,126.69585362329593
795.78,116.28113500857734
795.899,115.47680600424835
796.018,112.04130816875059
796.137,110.30970643714895
796.256,105.4802692077117
796.375,99.22312635056889
796.494,92.7235592510018
796.613,86.23005275749529
796.732,78.72096184840434
796.851,72.87863643628307
796.97,66.45644715749516
797.089,62.84471131878158
797.208,66.06463229119981
797.327,76.15531249713732
797.446,92.6109828475401
797.565,113.88056984148048
797.684,126.97895097741237
797.803,135.8029720691884
797.922,135.06075939473072
798.041,126.12547312719924
798.16,115.35901802849884
798.279,104.7354200726555
798.398,91.14818575317562
798.517,91.11246658521085
798.636,93.99449633499493
798.755,100.49903690728988
798.874,110.8434043194118
798.993,115.69686264062477
799.112,113.95984477136165
799.231,111.47304335231517
799.35,103.86935881638561
799.469,99.61805523283714
799.588,102.47584255837958
799.707,99.77259092288313
799.826,106.84682846487574
799.945,108.08210496790738
800.064,106.72344207699958
800.183,108.5976796189923
800.302,106.48663577570366
800.421,110.3288386856619
800.54,126.56324938782792
800.659,140.90934840168222
800.778,151.30393226402123
800.897,164.96864599648995
801.016,164.05240734800617
801.135,157.47036783372153
801.254,150.7246919558005
801.373,155.6413537402172
801.492,163.9796605462788
801.611,174.69978553415862
801.729,180.996533898662
801.848,187.37466754455062
801.967,173.80301764065587
802.086,151.48764479303833
802.205,128.74283471598372
802.324,103.49657522234534
802.443,73.4256037733384
802.562,43.95951231037191
802.681,32.79018686001956
802.8,21.821997709211388
802.919,11.492486428183712
803.038,4.684347511279716
803.157,8.171015555768395
803.276,11.227073598081155
803.394,-0.03699023260459322
803.513,-13.171226878214034
803.632,-14.103084938022253
803.751,-19.897268384895366
803.87,-17.75583400417285
803.989,-17.114055602204
804.108,-14.290061583854056
804.227,-4.320265180828553
804.346,-11.729602337459443
804.465,-15.193345657351573
804.583,-12.45249377675818
804.702,-11.235147569363454
804.821,-3.9878280663066623
804.94,2.294626096841242
805.059,6.8010872165468355
805.178,23.34937328411716
805.297,25.62062624727163
805.416,28.858255898440014
805.535,31.529444121554185
805.653,36.69233369681173
805.772,45.68823145311949
805.891,53.698682483796965
806.01,72.93317626084257
806.129,112.70622175519932
806.248,151.76469645597464
806.367,192.03468997141766
806.485,223.74797353015072
806.604,259.89675492438164
806.723,279.4100384831146
806.842,280.4860926046181
806.961,273.16474412871906
807.08,262.90053850996316
807.198,250.5255103803849
807.317,229.8742917746162
807.436,214.22134156711604
807.555,211.43592382714834
807.674,214.40894764562222
807.793,221.38716626929084
807.912,242.78096930854386
808.03,274.939274512299
808.149,312.0187918372661
808.268,345.2550191189431
808.387,376.59773990711346
808.506,391.38721394203696
808.624,382.93829866295073
808.743,362.4419631246682
808.862,342.3903512415694
808.981,326.77191126457546
809.1,320.7418387688127
809.219,337.0312137144722
809.337,358.70930017081787
809.456,406.54159315320715
809.575,447.84179998831837
809.694,479.4731974285717
809.812,483.18432778376564
809.931,460.6166834678728
810.05,418.7158643959111
810.169,383.85338561984696
810.288,347.06156585364533
810.406,341.9222232791245
810.525,337.8390402289717
810.644,335.54060371351954
810.763,332.65128986965567
810.882,334.75764702146273
811.0,330.459675168941
811.119,353.7088894636052
811.238,375.96329856346404
811.357,398.42203666765175
811.475,411.65220334326796
811.594,414.69795443446856
811.713,420.85366223562585
811.832,432.9825302099433
811.95,433.14343281629556
812.069,438.5536860719984
812.188,445.56047612423794
812.307,453.9612055704167
812.425,456.5428873975478
812.544,452.71071641082625
812.663,459.4058181513774
812.782,460.3372835282924
812.9,467.49732033377904
813.019,466.1932878751967
813.138,485.33687446423323
813.257,504.6432316160404
813.375,526.1495887678475
813.494,540.246422110131
813.613,549.2800519892107
813.731,542.9413874959965
813.85,537.5819437820032
813.969,528.5809416264515
814.088,529.0292901202503
814.206,534.596253332664
814.325,550.3926537745151
814.444,556.5596169869289
814.562,556.1863204590828
814.681,553.7662706844836
814.8,557.1306364943001
814.918,549.2595044686187
815.037,540.151143005708
815.156,534.1233010233166
815.274,523.8409135863799
815.393,511.7178335087503
815.512,512.90211273848
815.631,529.9530586348761
815.749,551.0775976048652
815.868,556.5882837610014
815.987,559.6747274928953
816.105,547.7031625667801
816.224,523.0865759956434
816.343,497.747911502429
816.461,465.74258034254785
816.58,439.0645219099396
816.698,413.91719940806706
816.817,395.45385959017733
816.936,382.6649786467466
817.055,358.2977427249609
817.173,346.1954418681106
817.292,333.88621460433376
817.41,319.0349959985656
817.529,314.98291159193144
817.648,316.34294839741847
817.766,315.76618866610886
817.885,324.004147549518
818.004,327.1607211515418
818.122,335.2965155327863
818.241,341.79161727333786
818.359,351.5981132496629
818.478,361.2221240317265
818.597,339.47440825252386
818.715,346.42957645497995
818.834,360.95325463656434
818.953,489.1361602219431
819.071,628.3677521177768
819.19,808.1271843663951
819.308,953.784767089127
819.427,1032.3511333270028
819.546,987.0842455165376
819.664,873.9225657686738
819.783,695.8908054591801
819.901,582.0561098237401
820.02,450.50630378276986
820.138,386.92248282669544
820.257,346.22662583985647
820.376,328.7129724127736
820.494,304.1275546728043
820.613,286.3473317380299
820.731,278.27966291580947
820.85,279.2016044831995
820.969,296.87592700297057
821.087,332.16496813746033
821.206,373.0211088390497
821.324,401.93439239778206
821.443,416.02689673573514
821.561,409.98606774035466
821.68,379.2292214289565
821.798,333.0498642950472
821.917,294.08435997499066
822.035,273.30673444281274
822.154,253.71525609678207
822.273,246.40949203646585
822.391,250.81022148264321
822.51,255.57891629678613
822.628,252.36059812391613
822.747,250.91284272160908
822.865,262.039113293328
822.984,274.3030462027092
823.102,270.65182759693874
823.221,272.314894705454
823.339,276.9364033724107
823.458,278.8531501346056
823.576,275.3274726543762
823.695,281.0069899793417
823.813,287.9150787328784
823.932,282.5997908630384
824.05,268.60744671614196
824.169,264.02549217963497
824.287,263.36301816260834
824.406,256.55508960012713
824.524,253.64845973894467
824.643,254.5773277132601
824.761,253.38758096896098
824.88,251.4272714540993
824.998,251.28947276174853
825.117,267.4581675758912
825.235,271.208680571852
825.354,272.6068126154318
825.472,268.36858102264785
825.591,270.0697433692576
825.709,273.90770225266385
825.828,271.54825853866737
825.946,272.74898798484395
826.064,276.129804011107
826.183,263.9159536670828
826.301,253.2744894217555
826.42,237.29886530157953
826.538,235.24890150724792
826.657,237.39715828556206
826.775,247.56960966249594
826.894,251.2840045557985
827.012,247.2303862555131
827.13,236.95940411228912
827.249,226.02139485698586
827.367,213.10644852492948
827.486,202.79743182410175
827.604,205.17045564257302
827.723,226.56079547836015
827.841,237.21693617994814
827.959,246.0687478772071
828.078,270.9084383623446
828.196,290.4935833929365
828.315,307.2752652200651
828.433,321.35391674416326
828.552,324.6161180518111
828.67,311.04108992222973
828.788,272.41757694416367
828.907,222.3445025273681
829.025,181.55281138802567
829.143,131.13888287833376
829.262,92.6305829417046
829.38,69.99050778020944
829.499,53.67851607753896
829.617,45.13836704095698
829.735,45.373005528381825
829.854,53.4612101087697
829.972,73.98576495655603
830.091,91.02908280615193
830.209,110.49195946186947
830.327,134.78591240234329
830.446,150.3167554269931
830.564,166.188341942053
830.682,179.27305450912237
830.801,183.55903581866514
830.919,177.72467080786166
831.037,162.98467809143042
831.156,148.72780225811618
831.274,137.7592381131137
831.392,123.08418046161793
831.511,129.38488038587977
831.629,137.31068853524994
831.747,144.92740577552917
831.866,146.60126587295127
831.984,148.31408700933426
832.102,150.87539299420217
832.221,144.3977379401091
832.339,136.66640323233642
832.457,139.63723302672815
832.576,138.124945938003
832.694,133.00072275360696
832.812,122.34723175543486
832.93,115.80952141099334
833.049,113.50593862423105
833.167,103.51748113695163
833.285,107.01269730948975
833.404,119.24415421222852
833.522,124.87744195460348
833.64,128.32970182363061
833.759,134.99365797110408
833.877,150.16143275714012
833.995,172.2736796796076
834.113,194.059694587904
834.232,233.68293893342974
834.35,258.49752527029744
834.468,266.5857046807583
834.586,276.05916547650037
834.705,272.7490764886926
834.823,258.1212385831359
834.941,243.48907167325024
835.059,225.2413203477803
835.178,211.88534391408513
835.296,190.40555795658054
835.414,178.99503606833983
835.532,184.24165703724174
835.651,195.65970657757208
835.769,212.55740979755606
835.887,234.4966714590986
836.005,255.77446125916953
836.124,284.524112531102
836.242,306.83393696320763
836.36,321.4874843390361
836.478,342.64925682308956
836.596,370.07250116861474
836.715,390.67756369595827
836.833,394.7778643185399
836.951,403.00024286319973
837.069,420.33084651608476
837.188,426.66491337243303
837.306,433.32105815085924
837.424,445.8681120201943
837.542,461.7900576644212
837.66,471.7189297155744
837.779,471.5300528489787
837.897,478.08403312524024
838.015,482.0683164318049
838.133,480.66904995481997
838.251,481.7719479799996
838.369,485.6445429748763
838.487,482.813241865857
838.606,481.6910316659288
838.724,487.8943625915419
838.842,494.3539705734323
838.96,487.8932322349765
839.078,485.0930999571268
839.196,485.9059546922641
839.315,489.19759730618944
839.433,483.330798361673
839.551,480.54884790200526
839.669,484.50975458519474
839.787,491.7658993636222
839.905,491.002996523002
840.023,494.6080590503471
840.142,491.6460220105927
840.26,480.376625663479
840.378,464.1271427362788
840.496,449.86467279609155
840.614,446.6377006914021
840.732,445.8782610542452
840.85,449.631375529642
840.968,460.36371078425987
841.087,465.9705049133365
841.205,476.71322977834416
841.323,484.73127931867657
841.441,494.7579868676671
841.559,505.07473770670106
841.677,507.8330469872935
841.795,519.2337805103101
841.913,536.233648232461
842.031,560.6516977727936
842.149,586.5130373564162
842.267,605.9518661175283
842.385,620.9075779955238
842.504,626.3394803497096
842.622,636.0709498034627
842.74,639.6422460970425
842.858,648.2014211785015
842.976,649.4567001560642
843.094,644.1656587873069
843.212,645.8962624401945
843.33,645.2770825432985
843.448,639.3765173650171
843.566,643.460367771151
843.684,640.1087203417871
843.802,649.3025274578779
843.92,648.4002306778648
844.038,665.065899265817
844.156,682.7636024858039
844.274,695.8517818962669
844.392,706.5754591422276
844.51,711.105196994249
844.628,706.010692422028
844.746,690.8529843866036
844.864,663.1887828446859
844.982,628.4977414759283
845.1,585.8153581158289
845.218,546.3762647990194
845.336,500.0696390146775
845.454,446.5469959143182
845.572,411.8901536797596
845.69,421.9675105794
845.808,481.43148291178557
845.926,546.0950451489474
846.044,610.972824524873
846.162,613.5549848659713
846.28,553.5558118865279
846.398,447.2817990930363
846.516,355.8377083902584
846.634,306.84799865265313
846.752,299.18777810532856
846.87,283.60418365044245
846.988,274.08986504687556
847.106,224.7496894789843
847.224,176.06622386780305
847.342,133.1390353128989
847.46,122.39496364111167
847.578,118.93703915547161
847.696,130.84794583866272
847.814,131.87032438332574
847.932,148.58707522236114
848.05,150.48564424321478
848.168,156.10888858874404
848.285,161.3459857481263
848.403,171.34758507201093
848.521,178.02277746948877
848.639,190.93087029986702
848.757,211.29783758911958
848.875,240.7358005493677
848.993,254.58588472173705
849.111,270.08358794172545
849.229,279.6496894301121
849.347,291.09371299642083
849.465,294.8771305021236
849.582,297.25795060522887
849.7,307.8898529594162
849.818,310.93214492399295
849.936,321.5060386201714
850.054,326.5933522297698
850.172,337.5404060991084
850.29,344.2320487130358
850.408,346.20161340488517
850.525,351.2465027720592
850.643,361.8394440872852
850.761,364.8999178700435
850.879,375.1595258519361
850.997,370.1819043965994
851.115,370.3237634607435
851.233,364.91324157250665
851.35,362.0434123249622
851.468,370.64804195187673
851.586,423.7176066437262
851.704,485.1421496905539
851.822,546.1909351616239
851.94,597.7176427106162
852.057,652.447813463072
852.175,699.6740881116316
852.293,739.9003627601912
852.411,775.7872434693568
852.529,837.8901414945396
852.647,886.9852473119302
852.764,929.6483184972858
852.882,958.6395282107802
853.0,983.990045283582
853.118,996.3899130057346
853.236,994.429607567714
853.353,972.4355358959272
853.471,942.0968754795517
853.589,907.2144921194532
853.707,871.879294906541
853.824,835.2479937975252
853.942,803.1708052426218
854.06,772.3940495881515
854.178,730.812964929352
854.296,684.4855599242321
854.413,631.7018778628352
854.531,581.0342131174555
854.649,514.0098384153657
854.767,453.94650267431484
854.884,399.3827340328311
855.002,349.2769740493557
855.12,297.2067119013782
855.238,250.52259693954778
855.355,209.80125254048806
855.473,179.32492978645
855.591,140.07977586358083
855.708,116.15583406192377
855.826,89.10068462053839
855.944,64.78876198786543
856.062,43.4373843839762
856.179,23.290983735970592
856.297,5.5685501877798345
856.415,-2.6557991014828373
856.532,-7.992461214525952
856.65,-10.050786106098286
856.768,-9.884987851431788
856.886,-17.28033339401337
857.003,-13.615220895064862
857.121,-21.99346075070072
857.239,-25.3155011156129
857.356,-31.432104612359467
857.474,-34.3939952628214
857.592,-40.566728834895294
857.709,-32.72687931608725
857.827,-27.734593683474213
857.945,-16.27077103437696
858.062,-14.463132767643867
858.18,-5.126428543341783
858.298,-1.431085449568783
858.415,3.4161816201507342
858.533,-2.1115081850209334
858.651,2.8142400283383973
858.768,4.029454031599155
858.886,4.834872642859405
859.003,2.6659220382239788
859.121,-4.44755969289186
859.239,-13.282950952154835
859.356,-13.206319694023554
859.474,-19.73096473857438
859.592,-19.574034201790184
859.709,-22.014137925537856
859.827,-16.65196894701808
859.944,-17.76032697366819
860.062,-19.763784878743465
860.18,-23.618351219229986
860.297,-13.032630545789129
860.415,-6.6300589122327045
860.532,5.489320325776605
860.65,13.669825489861982
860.768,23.367607576379832
860.885,25.065536185674375
861.003,38.69010922494975
861.12,46.16183235846493
861.238,49.09066789371643
861.356,46.47813779236292
861.473,53.07154358706198
861.591,59.01370538893342
861.708,53.86904994401049
861.826,55.37176041964005
861.943,60.61942337262404
862.061,59.04062438660827
862.178,44.0505768411543
862.296,37.917534470131955
862.414,41.86255275231264
862.531,44.49569508504547
862.649,36.85153061975565
862.766,43.772586772920555
862.884,44.64698074825668
863.001,45.93244902868035
863.119,42.33420628437318
863.236,52.154145358247945
863.354,59.60958226762064
863.471,58.272811384785676
863.589,64.42954699545729
863.706,71.05294927279554
863.824,77.89280176658409
863.941,87.6123079400265
864.059,97.84869723035206
864.176,104.20283543842663
864.294,104.06260135212887
864.411,100.1362200796839
864.529,104.5691461665462
864.646,94.5864878378239
864.764,93.48001998529205
864.881,102.66272962193781
864.999,112.63851285165731
865.116,122.53377660085744
865.233,141.68272000373724
865.351,166.6559058308594
865.468,193.30355053244037
865.586,206.33387921670516
865.703,221.620484957247
865.821,229.39973139042948
865.938,228.64391288854696
866.056,217.53571343428356
866.173,210.06647501898112
866.29,214.99117599761797
866.408,214.34704580742354
866.525,219.20594592025935
866.643,225.40510577335493
866.76,225.45621367839846
866.878,223.6363259124461
866.995,213.80691433696995
867.112,215.56971055370138
867.23,224.53856737649318
867.347,231.5108874027478
867.465,247.26675721255225
867.582,260.61223741196693
867.699,253.92308557674951
867.817,257.9975701051684
867.934,264.1551715167042
868.051,279.08420149966855
868.169,292.0876903570918
868.286,308.1370666604024
868.404,323.8141485914187
868.521,339.10162013282456
868.638,354.67307435821306
868.756,393.6055675446404
868.873,421.767497960505
868.99,461.70345435039565
869.108,499.8316185324941
869.225,533.6229861777958
869.342,568.3909771997207
869.46,610.6879725506501
869.577,649.3009852175967
869.694,687.1520931226385
869.812,696.6690018934812
869.929,711.3261704045839
870.046,716.9668886992364
870.164,716.042239028521
870.281,707.454385894602
870.398,700.2336323277825
870.516,680.0457791938634
870.633,665.7973199993382
870.75,636.4536227095749
870.867,611.1454232553094
870.985,585.1480463118664
871.102,557.8701498879043
871.219,532.5827296544184
871.337,507.119551845175
871.454,492.24771602727367
871.571,473.04514427863637
871.688,444.27027815770475
871.806,412.00710034846134
871.923,377.3967363920317
872.04,347.67554992477955
872.157,317.46432016748395
872.275,294.2799302370281
872.392,286.0366658476977
872.509,264.79859626356193
872.626,242.54234486124432
872.744,218.72159129442468
872.861,190.9536515804188
872.978,167.85930494000596
873.095,142.47751241214712
873.213,125.34160733017566
873.33,108.41349445599622
873.447,88.41525171168676
873.564,70.60661935698755
873.681,54.34084414514564
873.799,38.91749317572801
873.916,23.885413399573423
874.033,25.68079784955541
874.15,24.169176287565342
874.267,25.1468900773005
874.385,20.04864974110668
874.502,20.074722720422624
874.619,13.538680524546235
874.736,6.452800853361069
874.853,-2.1075624649839355
874.97,-3.523191421784885
875.088,-2.7391338253056707
875.205,-0.31335726700391486
875.322,-1.058378339682383
875.439,5.294903597592092
875.556,2.1309799052152796
875.673,-0.325079818345841
875.791,-1.6292752434937428
875.908,-1.8134489659430546
876.025,-8.534391188230925
876.142,-10.848083270763947
876.259,-15.299508536523714
876.376,-16.24786916808504
876.493,-17.709616486961366
876.61,-16.76499080378338
876.728,-18.73698533983327
876.845,-8.296234462661989
876.962,-12.331145657654142
877.079,-7.628580452267704
877.196,-1.9636022014210175
877.313,0.5540648447689689
877.43,-1.7129821390831503
877.547,-4.732383043203084
877.664,-6.700657508163942
877.781,-4.508339668223227
877.898,-4.417753154819804
878.016,-5.407387618872512
878.133,0.6413808939924346
878.25,-3.8908000249455155
878.367,-14.01355719642518
878.484,-19.40106388691428
878.601,-22.064289891199557
878.718,-31.380192422402583
878.835,-33.99330314992187
878.952,-35.080124676113016
879.069,-31.85472170191113
879.186,-29.819628920739923
879.303,-23.075224493627776
879.42,-16.31837131149851
879.537,-11.817926939108377
879.654,-5.308580983521346
879.771,-8.5314372056328
879.888,-12.69190486495131
880.005,-20.207730100070698
880.122,-31.40693997058897
880.239,-46.28953447650616
880.356,-64.85551361782231
