wavelength_nm,intensity
792.446,0.2977724885684858
792.565,0.2530290238444629
792.684,0.21654265433216743
792.803,0.18831338003159942
792.922,0.16834120094275878
793.041,0.14969509199783126
793.16,0.15342244450271203
793.279,0.16078181602313113
793.398,0.17223305044885806
793.518,0.1994152452581477
793.637,0.23420168780557915
793.756,0.25307865333744384
793.875,0.2600501484061262
793.994,0.25778270678705884
794.113,0.24320042148586785
794.232,0.2216064515077423
794.351,0.19899465633457775
794.47,0.1912100226803271
794.589,0.1830048001025066
794.708,0.17498089808284728
794.827,0.17478742717800516
794.946,0.17479396967237182
795.066,0.18335809479830514
795.185,0.18920241155182055
795.304,0.1945027666308523
795.423,0.19420648510024874
795.542,0.18599472002806156
795.661,0.179637284787791
795.78,0.16890105153213264
795.899,0.15998923956271488
796.018,0.15103058873272646
796.137,0.1349715334027954
796.256,0.13478810567843355
796.375,0.13009036432095059
796.494,0.12803649118747756
796.613,0.1382479331872131
796.732,0.14023380105338834
796.851,0.1367733056086457
796.97,0.1269298001611795
797.089,0.12049454022599351
797.208,0.13185784414163948
797.327,0.14623684390756736
797.446,0.16299147110155107
797.565,0.19416267670977183
797.684,0.2054479162350848
797.803,0.2012115551965674
797.922,0.18453043523064577
798.041,0.16559495863439017
798.16,0.14713428020074218
798.279,0.13533479567438747
798.398,0.12904315676269243
798.517,0.13750297336366862
798.636,0.14735166805447777
798.755,0.14439389734361277
798.874,0.14426341884118898
798.993,0.14480494797442464
799.112,0.14467633875610575
799.231,0.1512902373036368
799.35,0.14784997734464883
799.469,0.14782784600393528
799.588,0.1482300389281571
799.707,0.13201644855944691
799.826,0.1339499352936015
799.945,0.12864677173043065
800.064,0.1357846252996106
800.183,0.14829120545037672
800.302,0.15087634626606158
800.421,0.161480715891144
800.54,0.1679165819626235
800.659,0.16467983743405007
800.778,0.1692146415709941
800.897,0.16845376383916819
801.016,0.1659497786796586
801.135,0.1646860635236536
801.254,0.16797125123656892
801.373,0.17934950448101927
801.492,0.17790820733506185
801.611,0.1862460699831282
801.729,0.19102948890600369
801.848,0.197513956364206
801.967,0.18973765538723522
802.086,0.18146879804866156
802.205,0.16779121832995125
802.324,0.15544640405995036
802.443,0.1278924559474295
802.562,0.11706836398960603
802.681,0.09547815959959702
802.8,0.08497057234635351
802.919,0.07521511590612737
803.038,0.06733000038492701
803.157,0.060003628419112554
803.276,0.05973194105313827
803.394,0.05783858081817063
803.513,0.058413341937280525
803.632,0.05498832506152186
803.751,0.05250318337129754
803.87,0.04872367025570778
803.989,0.044908998592108326
804.108,0.041163242858134816
804.227,0.04606392528544587
804.346,0.050489893178288614
804.465,0.06041101790199746
804.583,0.07311474156764267
804.702,0.07276453628800462
804.821,0.07373693936160045
804.94,0.07144474256471342
805.059,0.06197607631660075
805.178,0.06603053583497753
805.297,0.061404075870476464
805.416,0.07146651427466483
805.535,0.08344688565132707
805.653,0.08544795439280103
805.772,0.09385856815136462
805.891,0.09214492255592707
806.01,0.09089704358669086
806.129,0.12003785795664632
806.248,0.14715187986128092
806.367,0.184810113896135
806.485,0.2146855044022218
806.604,0.24917086428562082
806.723,0.27345741009347846
806.842,0.26757744901880554
806.961,0.26218630573752605
807.08,0.2693324509468359
807.198,0.2637459674766095
807.317,0.2468035830699985
807.436,0.22883402704782482
807.555,0.2260159533367398
807.674,0.2197518543785395
807.793,0.21634402153240445
807.912,0.23667983538486292
808.03,0.26696865245308743
808.149,0.2977696533660147
808.268,0.3208056481077911
808.387,0.3433051583115029
808.506,0.3516850310299504
808.624,0.3403149825396127
808.743,0.33490047320702354
808.862,0.3190600317801653
808.981,0.29127860349213464
809.1,0.2800356663209208
809.219,0.26684119654434313
809.337,0.2562926984180458
809.456,0.24292251593562142
809.575,0.22609602714350568
809.694,0.23720879322310512
809.812,0.23792086254384967
809.931,0.24620353248885046
810.05,0.27499131442095737
810.169,0.2881836590670963
810.288,0.29783464497677764
810.406,0.299264519393748
810.525,0.2860672456910134
810.644,0.27988819915958013
810.763,0.2802161305967978
810.882,0.2903363068167729
811.0,0.3009471701142463
811.119,0.31518818314315344
811.238,0.33849242015396364
811.357,0.3577197485323038
811.475,0.35636345499113814
811.594,0.35152655444691905
811.713,0.3579081624573849
811.832,0.3633083963128546
811.95,0.3690871601995372
812.069,0.36702147334061697
812.188,0.38269996584608035
812.307,0.3839176765171618
812.425,0.3763843336518345
812.544,0.36641531359801194
812.663,0.36719093857831914
812.782,0.37204721075930597
812.9,0.3821870144623819
813.019,0.3901388211208426
813.138,0.41526747941789355
813.257,0.42761210372252745
813.375,0.4373247760076666
813.494,0.44056785600624987
813.613,0.4439287009034325
813.731,0.4402526257882662
813.85,0.43778036963656186
813.969,0.4356296303508753
814.088,0.44029149698496717
814.206,0.44344298206241717
814.325,0.4448840721840168
814.444,0.44538771632708196
814.562,0.4461381059719747
814.681,0.4430461821395442
814.8,0.44611448407433274
814.918,0.4377698719075418
815.037,0.4355097795017273
815.156,0.4356264818351082
815.274,0.43245044021796397
815.393,0.4318904617054239
815.512,0.4343465730959052
815.631,0.43529791078205887
815.749,0.4441488430949055
815.868,0.44853125175533587
815.987,0.4523229666386636
816.105,0.45322570293809294
816.224,0.44263140735122897
816.343,0.42713304491554116
816.461,0.4081363172778051
816.58,0.36838399358292595
816.698,0.3413755142722116
816.817,0.3300933221347981
816.936,0.3232656340190151
817.055,0.32696388469710563
817.173,0.3252113029257315
817.292,0.3209594883063005
817.41,0.32418481010588807
817.529,0.31077911122547364
817.648,0.30727968345820633
817.766,0.31076109718014533
817.885,0.31059273368755075
818.004,0.3210624660351148
818.122,0.3275870742795939
818.241,0.3315395475959305
818.359,0.34597533108122985
818.478,0.35391025336449655
818.597,0.3404605994421046
818.715,0.3504061625743584
818.834,0.35459825644575027
818.953,0.45590847736032697
819.071,0.5818112477560388
819.19,0.7094894076011042
819.308,0.8088372339892438
819.427,0.8405995672635311
819.546,0.7848672147801357
819.664,0.6856529023054679
819.783,0.5506833170835687
819.901,0.48300731397579616
820.02,0.4178266001935684
820.138,0.3720973182665399
820.257,0.34153150036815116
820.376,0.3131051690639792
820.494,0.28911277965628546
820.613,0.27206104212954574
820.731,0.26532962214515643
820.85,0.27146448465379336
820.969,0.2834969385129311
821.087,0.3008297474511006
821.206,0.3269743616590833
821.324,0.336133725849213
821.443,0.3387692885137491
821.561,0.34227406828699597
821.68,0.32942167750158735
821.798,0.30745091885318554
821.917,0.28422493592844084
822.035,0.26706758384978213
822.154,0.2542179969905305
822.273,0.2367830562223161
822.391,0.2337266487878744
822.51,0.2389278038861863
822.628,0.23934078775016931
822.747,0.2405547598530397
822.865,0.25227878183489316
822.984,0.25531250201374234
823.102,0.24728099493449665
823.221,0.24426010389804576
823.339,0.2459516780896814
823.458,0.2480152398181631
823.576,0.2472206661504749
823.695,0.26281036766096116
823.813,0.28039179138506365
823.932,0.2782093553605948
824.05,0.2636913954457719
824.169,0.2547295555390765
824.287,0.24405098222429147
824.406,0.24145165885238346
824.524,0.23379519137718918
824.643,0.24521777615930077
824.761,0.24871293109527545
824.88,0.2505137840324174
824.998,0.2554119899158378
825.117,0.258051504536346
825.235,0.26609957932619854
825.354,0.26592000012897343
825.472,0.26268881463073634
825.591,0.2639121331541298
825.709,0.2573424062448011
825.828,0.2524148454214991
825.946,0.2385063091169034
826.064,0.2300411281253531
826.183,0.23348889473340406
826.301,0.22938568820029884
826.42,0.24092465105578048
826.538,0.2475230960223957
826.657,0.25019510972697373
826.775,0.24906126099427123
826.894,0.23339840155736336
827.012,0.21747571162989449
827.13,0.2067888864798435
827.249,0.1964787220769007
827.367,0.2031192259358728
827.486,0.2103822014017281
827.604,0.2205593907868958
827.723,0.24202331759657192
827.841,0.25144718548752326
827.959,0.25680255652447614
828.078,0.2712697529300557
828.196,0.2774700403823579
828.315,0.28321235322899535
828.433,0.28249815877781026
828.552,0.27523492746561734
828.67,0.2704251315409148
828.788,0.23475779691859988
828.907,0.20306749143823155
829.025,0.17824230908976665
829.143,0.14759378376502597
829.262,0.11964910837200823
829.38,0.09744094773904383
829.499,0.09015366184317364
829.617,0.08979410709372357
829.735,0.09296854928347646
829.854,0.09797544229832536
829.972,0.11330108633605437
830.091,0.13011223922342793
830.209,0.14461553724353943
830.327,0.1640518683067291
830.446,0.18356244081464912
830.564,0.19880235536554103
830.682,0.21980266900550707
830.801,0.22410675788649131
830.919,0.2231861976946864
831.037,0.21677928865542656
831.156,0.19870898144455013
831.274,0.18552965609376437
831.392,0.17125119168938308
831.511,0.1681688044304299
831.629,0.17414870651132716
831.747,0.1723219736883806
831.866,0.16468428445269484
831.984,0.16288744269671335
832.102,0.16240400210240416
832.221,0.1618575330685274
832.339,0.1657396271568967
832.457,0.17342878761899747
832.576,0.1804260261892297
832.694,0.1712458194803788
832.812,0.15629471834880437
832.93,0.1476650887248772
833.049,0.14592304366591602
833.167,0.14025624141202886
833.285,0.13856672173213264
833.404,0.14153030739657063
833.522,0.15221407089607442
833.64,0.15835178256048088
833.759,0.16186760743881934
833.877,0.1815487698335969
833.995,0.20232587273408514
834.113,0.21965894428312882
834.232,0.23595830172224316
834.35,0.24610584517260986
834.468,0.2559197214102778
834.586,0.2538225193324492
834.705,0.24051615512045948
834.823,0.23569073289174153
834.941,0.22490696757911827
835.059,0.21527281199091913
835.178,0.21151194705985898
835.296,0.20559205898780702
835.414,0.21216459658783007
835.532,0.22468706549328699
835.651,0.2390909688501794
835.769,0.24815993537210201
835.887,0.25955802988854915
836.005,0.27446103210141115
836.124,0.2945494284208625
836.242,0.30875144909444163
836.36,0.3214374803590645
836.478,0.3347515910828849
836.596,0.35433154212584306
836.715,0.35827960484279026
836.833,0.3609593582946615
836.951,0.37353884036531326
837.069,0.3888857975530541
837.188,0.39277871638891076
837.306,0.39631553660281194
837.424,0.40446481534519496
837.542,0.4170228006486419
837.66,0.4208699220239318
837.779,0.42122522069154
837.897,0.4262808342405535
838.015,0.42659594329990924
838.133,0.4193114778313851
838.251,0.4252643477506812
838.369,0.43457351728006416
838.487,0.435237247824957
838.606,0.44411461272614144
838.724,0.4450232194887566
838.842,0.4427269386537699
838.96,0.42779897048090343
839.078,0.41352151317649166
839.196,0.41344968042616276
839.315,0.4158069823699625
839.433,0.4168370925993865
839.551,0.42549668590236656
839.669,0.42933352621507986
839.787,0.4320691640141332
839.905,0.4256584745130022
840.023,0.420438110904853
840.142,0.4279434731137409
840.26,0.4226943495077552
840.378,0.4182019255960626
840.496,0.41091830014783903
840.614,0.40335392171576984
840.732,0.39385447386714734
840.85,0.38838184739962833
840.968,0.39345690331521843
841.087,0.40460638304573193
841.205,0.40060998831747074
841.323,0.40957147100336877
841.441,0.420282603611317
841.559,0.43558376333849
841.677,0.4415469143203611
841.795,0.4525122695665554
841.913,0.4725333716582335
842.031,0.48751488380349306
842.149,0.4962268170614055
842.267,0.4987495506484756
842.385,0.5117243863072816
842.504,0.5231785593468699
842.622,0.5205616962879176
842.74,0.5221310949815632
842.858,0.5222845109658574
842.976,0.5263867896214458
843.094,0.5283814504489235
843.212,0.5252271682098546
843.33,0.538627266002493
843.448,0.5476625854105294
843.566,0.5427175289991059
843.684,0.543763528143421
843.802,0.548326585330832
843.92,0.5579329710328712
844.038,0.5617539224306947
844.156,0.5692938145549276
844.274,0.5773739297854343
844.392,0.5794087802211646
844.51,0.5640985434488766
844.628,0.5596843637232034
844.746,0.5502773261537308
844.864,0.5357877051034305
844.982,0.5148640081645648
845.1,0.4875081046212384
845.218,0.46462539794058977
845.336,0.43683862441111726
845.454,0.40680123281951996
845.572,0.38005845446255276
845.69,0.3541923703507155
845.808,0.33696144416079216
845.926,0.32070628427355086
846.044,0.3011116483331655
846.162,0.2945337722562392
846.28,0.2817358533207417
846.398,0.26348242872551775
846.516,0.2463851563490845
846.634,0.2409503475022155
846.752,0.23116851846973957
846.87,0.21413538607052285
846.988,0.1998282925470813
847.106,0.17891500509516522
847.224,0.16491340638283647
847.342,0.15252271772455378
847.46,0.15337168830050074
847.578,0.15970027428530764
847.696,0.1620140925754066
847.814,0.16803896161124374
847.932,0.17776719311863332
848.05,0.17464047549974177
848.168,0.1777674478533066
848.285,0.18735560071495563
848.403,0.20515458400673925
848.521,0.21897386143950004
848.639,0.22098393654047338
848.757,0.23414896453657025
848.875,0.25097311616772444
848.993,0.2581489578921877
849.111,0.26136191731457104
849.229,0.2684246673506966
849.347,0.2793409465687738
849.465,0.28539895639859375
849.582,0.2775887474552392
849.7,0.29311468127564166
849.818,0.3106669190655983
849.936,0.31973634558817876
850.054,0.32397273805791615
850.172,0.3233882468214916
850.29,0.3184455196948317
850.408,0.31760587117810846
850.525,0.31393238795857725
850.643,0.32529542607769235
850.761,0.3307132061016354
850.879,0.33368502787450727
850.997,0.3312733114256857
851.115,0.32300512787666796
851.233,0.3144855256155606
851.35,0.3306853363557286
851.468,0.35137049430525535
851.586,0.3772373077931621
851.704,0.4057435504369823
851.822,0.4481245543483439
851.94,0.4938553153754258
852.057,0.5368522483993042
852.175,0.5797407629451068
852.293,0.6316354883076174
852.411,0.6708415131670533
852.529,0.7034349455059197
852.647,0.728827895473271
852.764,0.7571023468881017
852.882,0.7896583935448728
853.0,0.810995931646959
853.118,0.8144771333383769
853.236,0.8096278704169557
853.353,0.802361623148087
853.471,0.7859181255669254
853.589,0.7500415504327349
853.707,0.7178007328822924
853.824,0.6902789230543029
853.942,0.6642852529819505
854.06,0.6357848729251221
854.178,0.6056741046120475
854.296,0.5864715436922687
854.413,0.5579823793400691
854.531,0.5160091340982217
854.649,0.47065715783703044
854.767,0.41984687198995563
854.884,0.3841095585215699
855.002,0.3427428959717157
855.12,0.2935392598126776
855.238,0.258651535969903
855.355,0.22455078073523002
855.473,0.2005712642857509
855.591,0.17411335470062161
855.708,0.14841611166528168
855.826,0.13013271707338606
855.944,0.10401899109427953
856.062,0.08530755536356481
856.179,0.0731751687302577
856.297,0.06647376991895854
856.415,0.07143251807195808
856.532,0.06758636984429214
856.65,0.06289873003497837
856.768,0.057933385266867386
856.886,0.042042519415257586
857.003,0.03841469223724256
857.121,0.035185239282639905
857.239,0.03686366753896578
857.356,0.03620153370121688
857.474,0.030997093309705383
857.592,0.03738101640985583
857.709,0.04513510428746817
857.827,0.04573118890976308
857.945,0.05731520204277093
858.062,0.06254276797559476
858.18,0.06824634845205557
858.298,0.06512883058625185
858.415,0.06473380665685215
858.533,0.06581976293348948
858.651,0.06848869217507855
858.768,0.0679998903995694
858.886,0.07340765453924489
859.003,0.0749287920946414
859.121,0.07550522647800939
859.239,0.07041665184347456
859.356,0.0649294942540902
859.474,0.0642247890566759
859.592,0.060694690325721834
859.709,0.050907583308900536
859.827,0.04860635322995571
859.944,0.05298882927267609
860.062,0.05559702740164333
860.18,0.0554109437212301
860.297,0.05652686555265951
860.415,0.0617132460944261
860.532,0.0666244620550876
860.65,0.07447179882421441
860.768,0.08125652786535228
860.885,0.10081171921810678
861.003,0.11488869368027343
861.12,0.1258946026300508
861.238,0.13087109398437666
861.356,0.12788693819537567
861.473,0.1320836372947895
861.591,0.13350912270890442
861.708,0.12556762547409372
861.826,0.1284287210806601
861.943,0.12677923414245373
862.061,0.1236922677276911
862.178,0.11520213560813519
862.296,0.10961126313505376
862.414,0.11117787949907781
862.531,0.11695786223521865
862.649,0.12195554957351958
862.766,0.1307946157470912
862.884,0.13146210645672785
863.001,0.1257515998009417
863.119,0.12537602998012531
863.236,0.12391814466265602
863.354,0.1241977589205562
863.471,0.12948425065304167
863.589,0.1366353532800199
863.706,0.14341820693836144
863.824,0.15063473450900594
863.941,0.15359770609928125
864.059,0.16648190307554206
864.176,0.16661197460506202
864.294,0.16282215736691177
864.411,0.16056328381055576
864.529,0.1592007319824299
864.646,0.1606533220160647
864.764,0.1671370902176467
864.881,0.175295736977089
864.999,0.19185494650329865
865.116,0.20779916155904396
865.233,0.22417891981119709
865.351,0.23300022778577462
865.468,0.24227390251370262
865.586,0.2529317821212015
865.703,0.2604847808307026
865.821,0.2616934292886665
865.938,0.26004113842430343
866.056,0.25902627343966184
866.173,0.2524409418228515
866.29,0.24710522663006979
866.408,0.2502467148523505
866.525,0.2482308482296132
866.643,0.25217239004872877
866.76,0.2497312612921594
866.878,0.24662092882608794
866.995,0.2435891062924161
867.112,0.24185269764333908
867.23,0.2495627162176397
867.347,0.25947288218323644
867.465,0.2586458802511224
867.582,0.2689495305207698
867.699,0.2709395397345209
867.817,0.2761129397786691
867.934,0.2793161143764059
868.051,0.28403340909899405
868.169,0.2918210029636418
868.286,0.3067053339319905
868.404,0.3115142235757118
868.521,0.3261686325991759
868.638,0.34816372030201126
868.756,0.3679362292042934
868.873,0.3837823068445382
868.99,0.4062503234258762
869.108,0.42968662917347705
869.225,0.45366783123761395
869.342,0.4752974738979695
869.46,0.5119935464426479
869.577,0.5420882421713854
869.694,0.5656432474596389
869.812,0.5749627196481335
869.929,0.5846766107827314
870.046,0.5874068565019658
870.164,0.5823421875043733
870.281,0.5764083013980696
870.398,0.5783861602651401
870.516,0.5676164361798363
870.633,0.5636079127014298
870.75,0.5405364299227355
870.867,0.5202455072498637
870.985,0.5013518744452963
871.102,0.48338073334642523
871.219,0.46037747943755486
871.337,0.45212661568340806
871.454,0.43959228740321615
871.571,0.4288244326020172
871.688,0.40047315686944385
871.806,0.38123931435781133
871.923,0.37000787709863336
872.04,0.3531106397179442
872.157,0.32542109055845403
872.275,0.3088453700437826
872.392,0.29117705296988194
872.509,0.2801531062463316
872.626,0.2563722301498832
872.744,0.24507817187319575
872.861,0.23276254983326
872.978,0.2093676809044435
873.095,0.19177880840499484
873.213,0.17735276461079108
873.33,0.16068825310114362
873.447,0.1530953773518704
873.564,0.14662594134955473
873.681,0.14030791735972437
873.799,0.1299756057549337
873.916,0.12041250455924975
874.033,0.1149496091171644
874.15,0.10565987321155089
874.267,0.09114276805254407
874.385,0.08031532045585352
874.502,0.08251905110680748
874.619,0.07935825669773276
874.736,0.0768551574208692
874.853,0.0779668266692638
874.97,0.07818238119102244
875.088,0.07902026603449422
875.205,0.08257621753240268
875.322,0.0863760087848062
875.439,0.09616308823911192
875.556,0.09248643893454593
875.673,0.0902370103454524
875.791,0.08055904583826932
875.908,0.07264045927392077
876.025,0.06544086213075444
876.142,0.07119847942306533
876.259,0.08075679884200199
876.376,0.08659629174192851
876.493,0.08459770373219633
876.61,0.08489469241063971
876.728,0.07845603282036817
876.845,0.078661522457645
876.962,0.0770615623705399
877.079,0.08325801329879168
877.196,0.09194217441261748
877.313,0.09415722004385957
877.43,0.0967285545696292
877.547,0.09276580003104806
877.664,0.08787164319371796
877.781,0.07981647525088559
877.898,0.07473361422922631
878.016,0.07266099363275445
878.133,0.07705803655652105
878.25,0.07267171769077369
878.367,0.07219260655924081
