wavelength_nm,intensity
792.446,217.66913824015967
792.565,190.10792611894752
792.684,165.31944127046265
792.803,143.30368369470503
792.922,124.06065339167455
793.041,98.80957114059228
793.16,86.26238499340619
793.279,89.43987417089531
793.398,102.19831572933685
793.518,120.82342395444508
793.637,152.9126014436225
793.756,182.23121616223713
793.875,200.64593477695576
793.994,196.29355382457481
794.113,181.6130343440554
794.232,162.01043694145798
794.351,146.3082724392935
794.47,133.78706031808144
794.589,127.67796940899058
794.708,121.52558845660965
794.827,121.64160577262692
794.946,115.92039365141481
795.066,116.43035036137147
795.185,120.9809997120208
795.304,126.90480923583036
795.423,123.15415988518109
795.542,114.62515555617682
795.661,101.61909495011619
795.78,94.38186551288666
795.899,81.65805598907713
796.018,78.51606464708573
796.137,75.21563174665286
796.256,72.57147590249706
796.375,77.01822914925032
796.494,78.78446291548411
796.613,80.27190880293
796.732,79.2095711405923
796.851,76.42255815357927
796.97,82.11952785054899
797.089,75.47883520985641
797.208,75.95069668171791
797.327,86.41043694145813
797.446,95.88229841331963
797.565,111.65372698474819
797.684,109.39052352154471
797.803,107.52905166007285
797.922,106.81563174665298
798.041,96.13684386786508
798.16,91.73511226613354
798.279,82.62602135704256
798.398,82.09009062111183
798.517,93.58359711461827
798.636,90.81909495011612
798.755,90.60437633539752
798.874,95.01130274232392
798.993,100.31173564275682
799.112,100.70221183323301
799.231,95.89095642197756
799.35,86.10480923583037
799.469,88.15415988518096
799.588,80.01996075098187
799.707,73.3091382401594
799.826,78.89528542630669
799.945,83.81909495011627
800.064,85.04247157349289
800.183,93.4797010107223
800.302,94.3784023094235
800.421,99.30654083756195
800.54,97.58359711461819
800.659,103.49009062111169
800.778,111.10827243929359
800.897,118.19225512327631
801.016,121.42082655184771
801.135,127.27104300206419
801.254,124.33424646526763
801.373,127.56454949557062
801.492,135.68316421418533
801.611,149.14809927912034
801.729,156.9013460323671
801.848,164.3160646470858
801.967,155.0944196254407
802.086,136.28749321851438
802.205,111.7074066384278
802.324,94.16108629210743
802.443,71.02496503450936
802.562,53.8086753806477
802.681,39.157137080416376
802.8,29.433306771181652
802.919,18.851789412476908
803.038,12.375993387498127
803.157,6.549102652843072
803.276,6.312300455711313
803.394,-5.051932689059745
803.513,-16.92475735303829
803.632,-26.29553702498329
803.751,-32.78859606808224
803.87,-29.512204626493812
803.989,-29.621690626842607
804.108,-22.757186444655073
804.227,-5.120237200524185
804.346,0.12477012725231917
804.465,4.773587714129451
804.583,6.654997801990014
804.702,5.542225076729585
804.821,5.338042669659008
804.94,0.6300149276504626
805.059,-5.411594010759923
805.178,0.1743557735446728
805.297,4.365121866503218
805.416,10.17630086657143
805.535,17.97372732817356
805.653,23.395109057958955
805.772,34.43230758197061
805.891,45.881181119812574
806.01,47.683325544352755
806.129,68.0489236345789
806.248,90.1832018132697
806.367,116.62281883611615
806.485,146.06070425723115
806.604,164.7098450896017
806.723,192.55465691764329
806.842,200.73020467642056
806.961,203.16116369060902
807.08,192.2077071203817
807.198,183.9148566107603
807.317,169.8479801271128
807.436,158.0841339464958
807.555,147.63630508189604
807.674,156.31661474543472
807.793,160.49302830507744
807.912,180.75255874783713
808.03,196.95494633345407
808.149,228.73742049915762
808.268,260.16837951334605
808.387,279.75778008597604
808.506,288.655405766831
808.624,289.0699145645693
808.743,278.82208569997
808.862,265.22533908645306
808.981,245.6588955032392
809.1,228.78422681180032
809.219,220.0948395056428
809.337,197.0877032817363
809.456,171.97926835653118
809.575,165.549621310114
809.694,169.02387036759285
809.812,174.97777310472554
809.931,176.20873211891444
810.05,189.9098210032334
810.169,211.73731681395913
810.288,220.44879530866763
810.406,223.13516557826784
810.525,231.09599472232685
810.644,228.64989745945934
810.763,229.78388677667846
810.882,234.3377895138109
811.0,243.3090082682594
811.119,253.36680710928806
811.238,271.8072899330006
811.357,286.2694177783582
811.475,292.7081690003391
811.594,287.9702968456967
811.713,294.8852385438681
811.832,298.64433608619555
811.95,291.6017020267914
812.069,278.5348255431451
812.188,291.26621745776714
812.307,296.0530206278005
812.425,307.2432870012972
812.544,309.9937265349671
812.663,319.80390632837737
812.782,311.2383285460302
812.9,306.5801100710423
813.019,307.8630171371803
813.138,321.5034999608941
813.257,336.46086590149105
813.375,358.48230110615737
813.494,368.53577094285833
813.613,377.0888078791263
813.731,371.2851348586843
813.85,369.79315014993045
813.969,365.725407865419
814.088,364.2897002129422
814.206,369.6704427769156
814.325,370.72391261361616
814.444,362.9219711949055
814.562,360.3131033692682
814.681,363.5302095696049
814.8,368.3983980210238
814.918,356.65186785772426
815.037,349.7659437550306
815.156,342.19343956575676
815.274,337.95946351501107
815.393,329.28479482357284
815.512,337.3928101148183
815.631,350.7553708606092
815.749,366.9118710003394
815.868,374.1488906205889
815.987,374.42573708066516
816.105,363.6203324584902
816.224,353.9612481826357
816.343,343.4839820885994
816.461,333.1686207564678
816.58,308.86364903472594
816.698,289.34742190172875
816.817,279.6545713921081
816.936,262.1504654712321
817.055,246.64116474516118
817.173,236.18900687623312
817.292,239.07451134496736
817.41,240.5331759868618
817.529,236.3554769923928
817.648,235.0089468290928
817.766,243.37323917661536
817.885,243.75744494405143
818.004,251.13212690196372
818.122,256.7466356997029
818.241,272.8433955796932
818.359,286.2615750969981
818.478,293.6972614299322
818.597,277.5414440122883
818.715,287.2115188036821
818.834,289.2301087067391
818.953,383.4757460520578
819.071,500.13909575515254
819.19,628.374878745002
819.308,720.9668957997312
819.427,753.666021904271
819.546,697.486881961357
819.664,607.6526238613454
819.783,480.2651547605449
819.901,411.0752339394745
820.02,338.25591451586706
820.138,295.5455913312194
820.257,268.94718799840695
820.376,242.80845004290015
820.494,218.68269910038043
820.613,209.8236148245273
820.731,214.71171669586033
820.85,217.63618220355693
820.969,229.3926823432881
821.087,253.7136846475214
821.206,281.6589293759971
821.324,295.07343817373675
821.443,300.9944404779699
821.561,298.29379776055805
821.68,280.17497322496445
821.798,250.22930886253098
821.917,220.53905575550874
822.035,199.3059455056292
822.154,183.16287854579315
822.273,174.77478994093534
822.391,180.59882254819888
822.51,188.31376424637173
822.628,187.4607405765792
822.747,198.10901560808537
822.865,196.62742050972133
822.984,201.4046998702317
823.102,196.24345109221406
823.221,197.93328456527883
823.339,210.09844271366848
823.458,218.7068909053483
823.576,217.4114429931321
823.695,225.47183923676016
823.813,221.71232206047472
823.932,214.8766144079988
824.05,201.23398034859642
824.169,194.3342034320512
824.287,193.18594166702115
824.406,186.75456301887414
824.524,181.3214527689954
824.643,191.82860225937634
824.761,190.79982101382632
824.88,191.69398349122005
824.998,195.35784293831074
825.117,197.58966775336697
825.235,193.73404668097746
825.354,181.65071998088246
825.472,181.1353586487528
825.591,184.0130709096967
825.709,177.19554507540255
825.828,181.47845214154142
825.946,181.41417306049425
826.064,180.85465588420902
826.183,172.82933784212307
826.301,170.59795919397658
826.42,171.62026019950974
826.538,174.74559150807323
826.657,178.48910463481855
826.775,186.01616754511357
826.894,184.26963738181541
827.012,174.0321981276081
827.13,164.50558138422332
827.249,155.3668434287173
827.367,154.9597072048128
827.486,161.77248440082167
827.604,164.9887248002936
827.723,172.69587429067457
827.841,182.35713633516804
827.959,184.14826850953165
828.078,196.6571496016441
828.196,208.93053285825877
828.315,224.26798537894265
828.433,235.38898768317637
828.552,229.55587743329758
828.67,217.0240658847177
828.788,191.81606385994746
828.907,156.42537785249343
829.025,132.08404249439005
829.143,104.23096655596119
829.262,74.23376512345357
829.38,55.12882914064194
829.499,43.42928187159708
829.617,37.140275125161025
829.735,30.89374467848537
829.854,30.6904098054638
829.972,40.061867858303074
830.091,54.8441315038731
830.209,71.31743430763655
830.327,89.7035176515841
830.446,124.48992443535607
830.564,149.97839745234603
830.682,168.41203217614225
830.801,166.561213871835
830.919,148.5692700264023
831.037,132.06650367014709
831.156,111.76373731389195
831.274,96.05144714811291
831.392,89.5452175883944
831.511,94.31604430573205
831.629,107.86609180229047
831.747,106.16419124690097
831.866,106.14627337549419
831.984,108.99935117508312
832.102,108.91736403960728
832.221,102.66048512923956
832.339,91.74819496346055
832.457,96.52335068512741
832.576,93.23923621414255
832.694,86.68698729727761
832.812,86.24988271469415
832.93,88.68689406349323
833.049,84.21307055105537
833.167,77.62987407425169
833.285,71.09779900207212
833.404,75.09695632580481
833.522,74.48997066803067
833.64,80.13002673843985
833.759,91.05682090738509
833.877,108.1982556409568
833.995,134.4717382022827
834.113,155.9117529955276
834.232,173.56123344472365
834.35,195.09123337443918
834.468,203.8177701006915
834.586,205.65599513863202
834.705,198.9496314319838
834.823,182.3861248681926
834.941,171.6433975251806
835.059,156.29460957610806
835.178,143.36400344521735
835.296,133.95201203294158
835.414,134.42140590205108
835.532,146.23105951142043
835.651,162.42253130260792
835.769,171.0546957344882
835.887,181.34660042610858
836.005,205.9120981913221
836.124,225.8749985539382
836.242,237.8621413407967
836.36,254.27006334843435
836.478,270.49703297511974
836.596,279.65300693080945
836.715,285.1587644362829
836.833,289.00131847855295
836.951,305.19105866800925
837.069,315.72538760205424
837.188,320.9895866659693
837.306,329.57932685542534
837.424,336.6617077375221
837.542,338.4653007408308
837.66,345.97452144976717
837.779,356.6118806868419
837.897,362.44404511872176
838.015,360.748071022463
838.133,353.7750406491482
838.251,349.8911877650109
838.369,346.60820068173973
838.487,342.66633913959424
838.606,342.0612741342455
838.724,347.05967233236004
838.842,347.10136057376457
838.96,348.3603648324852
839.078,343.22542969726635
839.196,346.7112737828264
839.315,346.0421395134082
839.433,344.35915243013716
839.551,336.5592822299832
839.669,334.5256457960631
839.787,334.8045634746971
839.905,335.66270193255195
840.023,336.06716073672715
840.142,344.9149095841924
840.26,339.9375502065494
840.378,341.72902199773785
840.496,337.12135958979206
840.614,332.2123984805477
840.732,326.0012728691386
840.85,318.7745628421451
840.968,322.0630043303029
841.087,330.77222503923997
841.205,329.8251686919
841.323,337.92832879477646
841.441,347.48170534786937
841.559,350.7701468360274
841.677,356.4300168956138
841.795,361.6561207214339
841.913,376.90906437409393
842.031,395.301401966148
842.149,405.46689973136245
842.267,420.8393239035032
842.385,439.6385879024839
842.504,451.2594969231096
842.622,452.7392804026098
842.74,452.0978517608979
842.858,453.8148646776277
842.976,452.7007087631887
843.094,447.0281112903082
843.212,443.3451242070379
843.33,443.151314612945
843.448,446.07265653400344
843.566,447.90222356328695
843.684,451.60624946702933
843.802,461.8063792668755
843.92,470.7623532225657
844.038,484.056855316784
844.156,486.80330546295
844.274,501.6034352627957
844.392,504.8122230712994
844.51,505.066032524825
844.628,497.7813138398227
844.746,484.84551290373827
844.864,463.2291924871343
844.982,442.6778071354655
845.1,406.04243909981403
845.218,386.3135645706561
845.336,353.4539541107622
845.454,338.1146899712144
845.572,316.91395397019454
845.69,293.8318326877892
845.808,273.60425685992925
845.926,258.86759012297847
846.044,243.4270272821318
846.162,230.0591917140126
846.28,211.48183233636973
846.398,194.08888854314247
846.516,170.56694042091078
846.634,150.38611783980457
846.752,137.9836502370532
846.87,126.52577137889041
846.988,124.96572801856307
847.106,112.627223450285
847.224,101.58979980274745
847.342,94.69023577640709
847.46,95.1190834400227
847.578,91.67694528693258
847.696,95.7121365727163
847.814,97.4756636701735
847.932,99.64503359313312
848.05,102.24200291420271
848.168,104.36451336081345
848.285,119.82208874248906
848.403,128.09957754407822
848.521,132.91299708159826
848.639,143.25455514725695
848.757,162.3588837756862
848.875,180.24070158160455
848.993,197.91992198492557
849.111,207.95758394668803
849.229,220.20563551884
849.347,222.26321090051584
849.465,223.02901139041674
849.582,219.62598071148645
849.7,226.55974656935285
849.818,235.403469137176
849.936,229.41255967036722
850.054,230.76970215161032
850.172,236.15281865882747
850.29,250.05628148639101
850.408,254.44199539620547
850.525,256.14545822376874
850.643,260.99091239332336
850.761,260.9411284676396
850.879,251.27662592723726
850.997,252.82337879809023
851.115,252.31645201526362
851.233,252.89610531901718
851.35,256.61774996476214
851.468,270.45281452392703
851.586,289.73636393157665
851.704,322.163636282949
851.822,358.6826835260963
851.94,403.4017307692434
852.057,447.0930723846849
852.175,483.8025958183081
852.293,530.9303010701132
852.411,577.9489154128273
852.529,617.8965340845459
852.647,654.0597371718488
852.764,678.5935030297148
852.882,701.1948013551132
853.0,716.1424200268322
853.118,712.1575711660835
853.236,706.0636313962441
853.353,693.8909037476167
853.471,678.0090851898981
853.589,652.029431134344
853.707,625.1008593298724
853.824,604.3757507288637
853.942,583.0757503529637
854.06,555.217308418622
854.178,521.0168751422891
854.296,488.85107390058823
854.413,460.370121143736
854.531,421.4554021531177
854.649,374.9103801321962
854.767,338.6484749943915
854.884,302.04544431546117
855.002,264.9515045456217
855.12,222.6592963775139
855.238,187.41817046048817
855.355,155.6038843703023
855.473,123.8692519597701
855.591,96.61687063148872
855.708,80.59649579738684
855.826,61.53687600139182
855.944,46.25251538899511
856.062,26.738028608453817
856.179,5.353002915095061
856.297,-6.213908240428832
856.415,-9.621025075738896
856.532,-16.022324417734293
856.65,-18.274374364848917
856.768,-19.999805284135494
856.886,-25.11192702589994
857.003,-21.672677985283173
857.121,-28.913582378186376
857.239,-25.051709184181597
857.356,-26.337896961810028
857.474,-28.12756049186035
857.592,-28.810048640428313
857.709,-19.238952471946885
857.827,-15.243342573594001
857.945,-6.416055254961143
858.062,-6.12991572605629
858.18,-8.603565252560092
858.298,-10.912306494840598
858.415,-4.805407918570188
858.533,-7.342748519474551
858.651,1.4688514382456894
858.768,1.621518409227845
858.886,3.398481768856515
859.003,3.914865124388484
859.121,-4.197741318044301
859.239,-8.487499677677818
859.356,-15.685698977236456
859.474,-15.454810670729955
859.592,-10.765867830833049
859.709,-12.020763235301986
859.827,-2.8485390431631306
859.944,-2.3474283877573363
860.062,0.3199362269627437
860.18,-4.774496062376288
860.297,-2.422158188956808
860.415,5.865488439610117
860.532,6.372159317428555
860.65,3.0035034554969955
860.768,10.823245390973108
860.885,18.8026646310579
861.003,35.010619283027665
861.12,45.06939472518048
861.238,59.900867879424815
861.356,62.058526359603434
861.473,61.09634248013779
861.591,62.69779496430837
861.708,60.3728405220719
861.826,64.09377352572275
861.943,67.82076713543415
862.061,62.766808364193054
862.178,54.095533575636
862.296,44.33681289963289
862.414,40.49497534051288
862.531,42.092964621219515
862.649,36.25199286296504
862.766,41.31145400514348
862.884,52.77178094818787
863.001,50.3480065379921
863.119,50.24494616126954
863.236,50.46826572504165
863.354,53.065174297330884
863.471,53.2395756223122
863.589,53.20747937572421
863.706,64.20652497439283
863.824,85.48992097017113
863.941,89.58705111054465
864.059,92.8296357963726
864.176,89.00468801466803
864.294,89.07497832820145
864.411,77.85955435602077
864.529,68.29694423665414
864.646,69.88931247226589
864.764,86.1015941277912
864.881,95.03335630279692
864.999,108.10104921373338
865.116,124.20943476536237
865.233,142.67626187543294
865.351,150.3500153924299
865.468,155.8272321128902
865.586,160.01786874677046
865.703,171.19984737199277
865.821,177.19048400587315
865.938,179.40103405966696
866.056,181.89556679744328
866.173,180.43512118024125
866.29,177.25952404788757
866.408,178.514229945837
866.525,179.91006138491207
866.643,183.81325213134664
866.76,185.67055543189394
866.878,176.92526132984392
866.995,168.43884168666827
867.112,166.050257541328
867.23,165.50496343927762
867.347,168.64278622034408
867.465,170.74684276764424
867.582,171.96345342749856
867.699,178.9688086760974
867.817,181.88065743118977
867.934,183.24618583996184
868.051,203.46539390241338
868.169,218.20841148867436
868.286,228.47697020047636
868.404,233.79055055729995
868.521,246.67815688814954
868.638,271.5986636518996
868.756,289.5390838355633
868.873,300.4942226339457
868.99,322.78269476566146
869.108,341.5681365943468
869.225,363.5821498516037
869.342,385.5364228491202
869.46,423.176410132351
869.577,456.4406398398243
869.694,485.4979431403714
869.812,493.7768914625635
869.929,497.8419869709029
870.046,502.5633595355192
870.164,502.65096586636935
870.281,503.36714362579073
870.398,498.1205508224416
870.516,493.28954243467695
870.633,492.4481444365226
870.75,473.369517001139
870.867,449.0848289596948
870.985,434.66074697885665
871.102,421.5370978984516
871.219,405.80998561458335
871.337,377.70798155582327
871.454,364.23368312476873
871.571,343.17496910929856
871.688,317.6314066089796
871.806,292.54498696580356
871.923,281.7027231667834
872.04,272.8024507097548
872.157,253.28226483281287
872.275,233.11359410738612
872.392,217.97868961572573
872.509,197.88880676908687
872.626,185.70282002634394
872.744,181.23371640048418
872.861,169.57327078328257
872.978,153.09291174616766
873.095,134.0523795488796
873.213,116.89583003557435
873.33,94.76092554391437
873.447,77.88143230766556
873.564,71.26081353029119
873.681,66.08261899534111
873.799,50.2167660287452
873.916,35.91959732682511
874.033,31.05300269431286
874.15,31.816886576818238
874.267,17.681254889536255
874.385,9.775879521443184
874.502,11.720105737110865
874.619,5.778925728305038
874.736,-0.07192611793914461
874.853,5.118255666317535
874.97,8.44692226460953
875.088,14.537521666114536
875.205,14.268659194691267
875.322,15.538377489981873
875.439,15.599079066170832
875.556,7.020523056532544
875.673,7.267715905557784
875.791,14.737984011672193
875.908,6.869569947391288
876.025,5.901818103381146
876.142,11.231381854250404
876.259,15.49017464563092
876.376,8.39286088170138
876.493,7.198630919686524
876.61,5.885806136866888
876.728,7.591876739190749
876.845,5.935994632757409
876.962,5.279836839530546
877.079,7.974804961214796
877.196,9.783031107456639
877.313,7.835208175629096
877.43,9.4534881952917
877.547,6.714309728837678
877.664,8.169859996651471
877.781,10.759358991664005
877.898,14.022070201538883
878.016,8.694136385437808
878.133,12.799064539425384
878.25,13.07395244105962
878.367,8.207381434141741
878.484,9.546240991337513
878.601,9.394110057371979
878.718,6.951427753143865
878.835,0.8020252116252065
878.952,-9.894206992077933
879.069,-6.69194636429336
879.186,-17.737938172560217
879.303,-19.51990416573201
879.42,-12.82002617425314
879.537,-9.880169214274707
879.654,-3.3590733629315928
879.771,-2.140842221846759
879.888,-1.2121012253995143
880.005,-1.7958246684329495
880.122,-4.366499905956063
880.239,-8.924126937968857
880.356,-15.468705764471334
