wavelength_nm,intensity
792.446,190.0530617347806
792.565,167.25791021962908
792.684,147.43375437547323
792.803,130.58059420231302
792.922,116.69842970014835
793.041,101.48284528456394
793.16,93.36855957027817
793.279,91.23522623694484
793.398,106.93133013304873
793.518,126.96509636681488
793.637,149.23003143174995
793.756,161.3495119512305
793.875,167.7737543754729
793.994,160.97894918066766
794.113,150.4863084880269
794.232,141.39193619365463
794.351,140.00838641010483
794.47,134.22050762222605
794.589,127.97548597720444
794.708,118.22223922395776
794.827,105.58327818499671
794.946,103.82223922395775
795.066,103.41358121529976
795.185,110.61444701616561
795.304,118.2906374923561
795.423,120.53479333651191
795.542,117.54864615036476
795.661,103.01011801183668
795.78,90.45254225426095
795.899,76.17963386153676
796.018,59.224017932648934
796.137,50.68840441770722
796.256,51.42957080192897
796.375,56.63325388053088
796.494,59.54921469379423
796.613,58.6877753236012
796.732,64.57133404495028
796.851,62.04518783677852
796.97,74.54674725631239
797.089,91.56432399186355
797.208,114.41393535944927
797.327,142.8444991079872
797.446,159.79454337600578
797.565,169.49437119380804
797.684,164.44701286442432
797.803,148.63688397227014
797.922,131.09688495024602
798.041,106.67030584164198
798.16,93.85065313996449
798.279,90.90286191014836
798.398,81.20095812621969
798.517,81.75706300029958
798.636,80.5988821600936
798.755,74.79394807313439
798.874,69.50849450565583
798.993,68.53213184726835
799.112,74.71680814991996
799.231,81.39499094607814
799.35,70.06601131219924
799.469,65.91612120599294
799.588,58.0990132750503
799.707,52.793829514852305
799.826,49.27009633370528
799.945,47.83923970425539
800.064,59.146360055263955
800.183,72.4143881157633
800.302,73.12806759903934
800.421,78.65127089183927
800.54,84.07057808074302
800.659,92.6396688194302
800.778,97.06590241526038
800.897,98.33542605438048
801.016,101.1884994770502
801.135,97.40434346249053
801.254,100.1968108245542
801.373,96.89230848964829
801.492,95.45966762660372
801.611,101.66339039992287
801.729,109.88096598709485
801.848,111.94269741842258
801.967,106.62693967226082
802.086,98.42893084384788
802.205,90.61079036541386
802.324,67.70252569600122
802.443,39.86688161094986
802.562,22.809157199648514
802.681,7.467356690370431
802.8,1.2113631144295067
802.919,-1.5138432151418462
803.038,-2.5307908441424773
803.157,-2.8799864424576125
803.276,-9.878591346506697
803.394,-19.390397319800222
803.513,-19.750911291422618
803.632,-25.96317695611297
803.751,-24.770665283119463
803.87,-19.855272359578827
803.989,-20.261585386848125
804.108,-14.053205972543385
804.227,-6.407863807121075
804.346,3.190429981659566
804.465,21.175292194628796
804.583,21.81153131414784
804.702,24.016418179911188
804.821,23.34892283368659
804.94,11.354457926105685
805.059,8.522158536247233
805.178,3.4298096779798586
805.297,3.359378688256034
805.416,13.010718586269897
805.535,12.155468406459008
805.653,13.156569725133197
805.772,20.66563998752237
805.891,30.492348055853462
806.01,40.923764975614716
806.129,56.07445736056946
806.248,85.36885643009666
806.367,112.41296693433041
806.485,129.16699873336614
806.604,148.8188660302372
806.723,160.4698675262424
806.842,162.91654001791852
806.961,150.02122116760324
807.08,137.9527421441278
807.198,133.84876528515449
807.317,125.51794859934138
807.436,118.71440464080092
807.555,128.29441046581042
807.674,133.96013057653425
807.793,147.23017969158724
807.912,162.66386517027678
808.03,179.5650831164988
808.149,199.7606733570932
808.268,222.1484713898953
808.387,233.428910115338
808.506,247.64960858104044
808.624,244.87290444933996
808.743,235.78970681114598
808.862,228.8640849305276
808.981,220.09344140488744
809.1,201.2552654117148
809.219,189.3123275137802
809.337,176.66376191021794
809.456,165.68013137159076
809.575,152.57355711001986
809.694,144.30940709087332
809.812,149.64785447432425
809.931,164.874613546087
810.05,173.65981417629155
810.169,188.67791523939667
810.288,197.77740158388718
810.406,198.73316498465476
810.525,192.64650414299808
810.644,192.80919395069185
810.763,201.52859371509535
810.882,206.80730083880616
811.0,215.66003393654285
811.119,227.16990989142224
811.238,241.54212350863924
811.357,255.13684794836723
811.475,259.98005723658014
811.594,267.1314916330184
811.713,275.2456965922273
811.832,273.30795349948824
811.95,276.4706433071822
812.069,267.2445885261315
812.188,278.9890965156436
812.307,282.53966511121644
812.425,286.28677050332607
812.544,283.00010966166946
812.663,284.2329293394934
812.782,288.8363117878801
812.9,296.5721617687343
813.019,294.9435095850864
813.138,311.09754138412234
813.257,320.2039541355391
813.375,337.2913192679082
813.494,341.82803504962783
813.613,344.7837984503951
813.731,344.77159648319696
813.85,343.34640750301196
813.969,342.2710020726104
814.088,344.53066157727363
814.206,344.50114359275943
814.325,347.1010628376823
814.444,350.82306000468316
814.562,349.48445111107776
814.681,348.28696775859777
814.8,351.58039349702665
814.918,346.5119144735507
815.037,342.480664887304
815.156,331.98188283352476
815.274,323.94630424294894
815.393,324.26916721081477
815.512,324.4396492262995
815.631,333.3252827569358
815.749,339.70182537848115
815.868,344.5398398614982
815.987,343.0038283704892
816.105,336.0877302993938
816.224,328.4495543062203
816.343,310.9784778801463
816.461,297.33337548004624
816.58,273.00775359942685
816.698,250.1193611560368
816.817,237.61105529273323
816.936,220.78673211341243
817.055,213.06890244058528
817.173,202.2939299106152
817.292,194.53887080055853
817.41,196.50242640911648
817.529,195.79844955014192
817.648,190.4044294011241
817.766,196.05283349453055
817.885,201.66141074811026
818.004,209.18427371597585
818.122,210.07769945440432
818.241,224.49666631837397
818.359,235.7156615248723
818.478,232.0561938187403
818.597,226.97378667881537
818.715,250.63554301860933
818.834,306.7900785275716
818.953,417.3881450547876
819.071,533.7537791216546
819.19,636.2263142483198
819.308,688.569467332905
819.427,672.4441264170114
819.546,596.320008548809
819.664,499.78808170398804
819.783,406.85192193793023
819.901,344.7316961987191
820.02,283.9058702272012
820.138,246.3343352760853
820.257,217.86585625260864
820.376,198.32984476159947
820.494,170.37305404981083
820.613,162.88466160642037
820.731,165.3789531457137
820.85,167.03688104864335
820.969,179.39610765287173
821.087,204.5293602311262
821.206,232.58728813405597
821.324,247.6573372491071
821.443,246.96807900485084
821.561,238.76972985150374
821.68,225.47527680205263
821.798,200.3245466963244
821.917,180.42316723994674
822.035,166.25512111690236
822.154,157.77105767784056
822.273,149.90431025609462
822.391,156.6384286352144
822.51,157.64787168965887
822.628,155.8019034886919
822.747,155.5533378851275
822.865,158.47446925126002
822.984,167.14884737063926
823.102,162.1548272216201
823.221,165.16080707260085
823.339,184.11743627423087
823.458,195.60826461006
823.576,198.1761492229453
823.695,201.08775677955353
823.813,204.5006630374604
823.932,200.93521431701222
824.05,179.6676010943993
824.169,167.89349436529287
824.287,166.86657378337253
824.406,168.15307311487211
824.524,163.82052482732414
824.643,164.01611506791454
824.761,170.7060776028773
824.88,173.09474143654143
824.998,177.5362191230194
825.117,184.01492624672682
825.235,186.7628974396984
825.354,186.65892058072188
825.472,177.16100432780593
825.591,166.31849933030102
825.709,159.73573459253635
825.828,152.59279669459863
825.946,151.9000752468773
826.064,153.60129319309533
826.183,159.77783581463808
826.301,167.0357637175661
826.42,166.745639672442
826.538,164.75421692601887
826.657,160.5853050021064
826.775,150.32028918209
826.894,140.69250279930296
827.012,131.5287856805851
827.13,129.20576120255996
827.249,126.55719559899374
827.367,118.4843875711852
827.486,117.6349561667532
827.604,111.6149619917585
827.723,113.37851760031359
827.841,121.58882645562191
827.959,131.4060617178565
828.078,155.79126234805636
828.196,175.71239371418693
828.315,189.87421772101018
828.433,199.65335774514944
828.552,191.2619349987258
828.67,182.70947329126312
828.788,158.50878962856635
828.907,124.21909189816968
829.025,92.3222078743654
829.143,59.85864274415968
829.262,42.09573303746762
829.38,29.898132106156098
829.499,23.215000163061806
829.617,24.451867899129695
829.735,30.39024403741091
829.854,32.34139481283087
829.972,43.95700414770016
830.091,59.201779480273615
830.209,81.1739424339642
830.327,105.93528706556485
830.446,136.77788005134835
830.564,164.40209394273714
830.682,201.20379701161517
830.801,226.949223024216
830.919,246.54659708876483
831.037,241.96388457322718
831.156,222.77944045595808
831.274,194.9690223127153
831.392,159.8997297105983
831.511,132.25035052839496
831.629,130.15075489597538
831.747,123.32042333281989
831.866,123.69961557918825
831.984,115.26408921083807
832.102,113.98354119746625
832.221,95.94451267261866
832.339,73.7637235263046
832.457,66.64570262580592
832.576,57.77951303899256
832.694,47.672764503912575
832.812,56.18850812090646
832.93,52.08346228002442
833.049,60.881270840582516
833.167,61.21806274574004
833.285,58.19207706299057
833.404,63.30908425603982
833.522,58.77191181930023
833.64,71.94464353524
833.759,89.66795765414419
833.877,100.08308228231822
833.995,110.80268952980917
834.113,124.26187975509214
834.232,136.02447139522923
834.35,147.36195481025806
834.468,154.1271438529925
834.586,159.6568350602293
834.705,158.47397215491208
834.823,162.4149187734044
834.941,143.1489389849704
835.059,131.84746136103863
835.178,119.86026945139265
835.296,112.53541520408436
835.414,104.86250900872413
835.532,105.59739502115633
835.651,109.85176155306917
835.769,125.45850903736306
835.887,134.87478033118094
836.005,156.0417009756482
836.124,170.85104586253988
836.242,189.46298815202894
836.36,201.7502551168427
836.478,219.27908052321501
836.596,230.84513536681663
836.715,238.8328352320633
836.833,253.8560329328078
836.951,265.0939492482708
837.069,266.1076231394913
837.188,263.45636196577664
837.306,271.4284774154386
837.424,284.05427251877995
837.542,287.803011345065
837.66,297.50846012805994
837.779,300.914341811488
837.897,296.13407630876895
838.015,290.2499147021538
838.133,281.87224660203213
838.251,291.962110969443
838.369,303.47881516369364
838.487,299.1981167605419
838.606,311.25594649591824
838.724,302.9328238503424
838.842,301.1326449277102
838.96,298.65108072369253
839.078,298.08033903049727
839.196,310.26717309487753
839.315,313.2245699298203
839.433,312.90750789030426
839.551,322.6086276689699
839.669,312.7755483134365
839.787,311.81000142543564
839.905,304.3466190395994
840.023,304.90921067973704
840.142,304.82937807745077
840.26,289.51664504226403
840.378,287.20304620621164
840.496,291.49291057362245
840.614,287.4858052440635
840.732,292.7748038106083
840.85,295.53220064555126
840.968,303.351069341966
841.087,303.67729734574004
841.205,298.1126162586051
841.323,301.6708788944139
841.441,310.02048352156476
841.559,318.5259323045598
841.677,336.0123334685071
841.795,350.2329337666536
841.913,360.4907635020295
842.031,373.78495687376915
842.149,377.8168125831711
842.267,387.43308387698875
842.385,398.1298746513259
842.504,400.3634619624596
842.622,408.2515947281387
842.74,408.5007664548568
842.858,405.25383428547104
842.976,403.5558198650032
843.094,396.84741583414575
843.212,399.4048126690893
843.33,406.74402768585117
843.448,412.32220374157396
843.566,413.97657027348725
843.684,416.9945731690371
843.802,424.1372513892623
843.92,427.7102326397905
844.038,435.5533437604484
844.156,442.6657189503702
844.274,456.78069154288926
844.392,461.8532398929837
844.51,454.4963510136409
844.628,446.82777382260974
844.746,432.4501057224878
844.864,413.723519873448
844.982,389.8540768815511
845.1,367.2651533701737
845.218,349.47190085446704
845.336,322.2682587283707
845.454,300.14253868019637
845.572,277.20902642422993
845.69,249.44521113796048
845.808,234.91949108978628
845.926,219.36779701563808
846.044,204.92865705404415
846.162,199.1882183911514
846.28,183.9949658754448
846.398,172.1930553510801
846.516,160.6638720994428
846.634,145.12949404261076
846.752,139.42541901608178
846.87,124.37675524496426
846.988,111.96705251280773
847.106,99.54637760539435
847.224,88.75668270515064
847.342,77.67845443746549
847.46,73.49440937098645
847.578,64.63146112920224
847.696,61.04749206406916
847.814,58.916532266743516
847.932,65.29975523857686
848.05,68.51604066167951
848.168,84.87342807526775
848.285,100.49093462843891
848.403,112.6558982903135
848.521,110.94989273934955
848.639,112.89323783773614
848.757,122.87554397508373
848.875,132.21369426827533
848.993,144.62976663938903
849.111,157.64064420530786
849.229,173.2575823772873
849.347,182.07452054926682
849.465,180.15985698964474
849.582,180.391513776343
849.7,183.242218182089
849.818,186.56218665709912
849.936,193.2951421450964
850.054,204.0765824815786
850.172,217.3801007401388
850.29,223.4126233277035
850.408,226.837353707476
850.525,225.16165118681573
850.643,227.4565114367183
850.761,225.26825480350396
850.879,225.05575574604717
850.997,228.10039954573324
851.115,229.0887662891422
851.233,223.8580854135036
851.35,229.5347638452243
851.468,237.1040829695859
851.586,265.3418003623458
851.704,292.34401991960806
851.822,326.0709148015456
851.94,369.8722685579422
852.057,414.8450508857675
852.175,453.99445659021615
852.293,496.7793601301626
852.411,528.9313632372089
852.529,569.7292537901426
852.647,592.8180534339856
852.764,618.7553379263131
852.882,638.9627522887707
853.0,650.9268766079381
853.118,658.4416502777548
853.236,664.335644726792
853.353,655.057344803535
853.471,645.2136769149099
853.589,615.7535588098347
853.707,586.835432046751
853.824,555.6289935953555
853.942,537.5030746244795
854.06,519.7988006752485
854.178,495.24863928013025
854.296,470.4733696599037
854.413,441.1223424639196
854.531,395.30031959693986
854.649,350.68435733602087
854.767,305.637226243933
854.884,275.2403116020615
855.002,232.69621081300414
855.12,194.90968578152263
855.238,165.3465373734178
855.355,134.25005563197968
855.473,102.62543536240312
855.591,80.88739517940667
855.708,56.755585406299915
855.826,41.88886668929899
855.944,20.35023801717274
856.062,12.153384988718717
856.179,3.4295476727253242
856.297,-3.957447097220736
856.415,-7.388129296643006
856.532,-6.695506195991674
856.65,-9.610227406235895
856.768,-9.802594774693837
856.886,-13.962882832938984
857.003,-15.142675438174413
857.121,-19.100626569102758
857.239,-24.7166523245345
857.356,-31.920618319035917
857.474,-34.73739791822082
857.592,-35.85186277739598
857.709,-30.329169167696207
857.827,-23.370234826266348
857.945,-20.65860951137348
858.062,-16.929583329084263
858.18,-9.503054394913885
858.298,-3.550264872635468
858.415,-0.35019383605791177
858.533,-0.21559879642633462
858.651,7.125801388585684
858.768,6.463491698449452
858.886,4.458449930904216
859.003,0.7095362261451097
859.121,3.0586603885966266
859.239,-1.362723560978914
859.356,-16.44362016485528
859.474,-22.993735011733587
859.592,-16.863564255121737
859.709,-20.29916730407686
859.827,-19.944583372807905
859.944,-23.461664689282394
860.062,-16.37501823132534
860.18,-17.33326470241341
860.297,-15.531021654772989
860.415,-6.3967397615178365
860.532,8.203780981656713
860.65,9.92773211178628
860.768,13.118797483792628
860.885,18.644304160827517
861.003,33.63302028505083
861.12,40.32642908502645
861.238,47.9403746065299
861.356,46.65563137692507
861.473,58.16343375392371
861.591,53.25427919287863
861.708,51.905297792006735
861.826,54.81172764654629
861.943,55.76837395130218
862.061,55.20553973657766
862.178,45.1041447933452
862.296,33.219798993793276
862.414,34.88084457810603
862.531,31.480996847103743
862.649,23.687792491648967
862.766,25.00093417414685
862.884,24.389726774704542
863.001,34.727709425764274
863.119,39.38399750344432
863.236,48.38454770006696
863.354,54.891115006642686
863.471,62.2991208006851
863.589,56.81773942629792
863.706,56.551076666629356
863.824,60.77532299786982
863.941,69.42814075768152
864.059,72.40390224043679
864.176,71.88875463228285
864.294,73.54849879902056
864.411,72.69742045493575
864.529,65.24461050911941
864.646,65.6082507797535
864.764,72.2593369378337
864.881,79.92514171063249
864.999,85.22384691633185
865.116,94.93207593155515
865.233,110.2091361156095
865.351,125.84550365897115
865.468,140.1900963105578
865.586,158.14334697080227
865.703,171.6437837782327
865.821,170.09054093198336
865.938,169.5901119385478
866.056,158.878427533857
866.173,149.4264833889066
866.29,147.64466911408613
866.408,153.24553882194957
866.525,159.6490059324102
866.643,164.76242975282736
866.76,164.86979296718386
866.878,169.41958042396448
866.995,158.9667704781478
867.112,159.7520557704264
867.23,163.01179993716391
867.347,158.84124107359838
867.465,155.62998956934018
867.582,155.3321579785019
867.699,154.87934803268536
867.817,157.44125670158746
867.934,162.10359827092248
868.051,181.68022555454317
868.169,197.38758876889978
868.286,203.1070731953775
868.404,216.9520987473963
868.521,224.84128014357088
868.638,241.22137063065463
868.756,259.3270022432796
868.873,276.7122875355584
868.99,311.2551485854131
869.108,336.51662435388255
869.225,360.1962819405337
869.342,386.2586235098686
869.46,405.75040230864056
869.577,433.9936962589275
869.694,447.3651287373531
869.812,459.2698945491121
869.929,472.36340494961564
870.046,479.11146080466483
870.164,477.6283478285452
870.281,469.50887121606195
870.398,458.3088751230591
870.516,444.86385738503475
870.633,422.50282233099324
870.75,405.13486087002525
870.867,382.5149513571091
870.985,368.09590764505884
871.102,359.97210202824647
871.219,348.9556557187933
871.337,343.3452700154004
871.454,338.2586938358171
871.571,324.8820743661902
871.688,304.3877059788144
871.806,276.9297012278022
871.923,254.6015666066602
872.04,236.63533674742308
872.157,214.97040558948476
872.275,199.24659997267202
872.392,186.96088959395448
872.509,173.2301575702152
872.626,158.6085164555669
872.744,140.07432122836454
872.861,128.86047232150844
872.978,114.36870133673033
873.095,106.46307753809938
873.213,95.64489962691431
873.33,83.76092084992848
873.447,73.32369531969582
873.564,61.200755503748866
873.681,45.44404945403562
873.799,34.64505922534542
873.916,20.21929318028551
874.033,15.87336548781613
874.15,11.725878314243376
874.267,13.158504074301586
874.385,15.668799283966845
874.502,18.633840924093942
874.619,22.620183150372483
874.736,23.95054299484076
874.853,10.837120639823759
874.97,8.559908295607283
875.088,8.463009281134728
875.205,7.8148706013760965
875.322,13.492576986994274
875.439,14.455152203003735
875.556,10.56420509382718
875.673,3.0299247409776906
875.791,-9.400227970156706
875.908,-10.287092441606202
876.025,-9.909191483799926
876.142,-5.288446839891998
876.259,6.317321634495666
876.376,3.198658979054879
876.493,-0.5318812542258827
876.61,5.799599070539731
876.728,13.385913276010813
876.845,24.002042931781446
876.962,28.209155247223237
877.079,31.66021904045094
877.196,29.844782876103505
877.313,18.05742422363923
877.43,8.026695338891493
877.547,7.0051206992427115
877.664,5.470153717249481
877.781,3.1550927188132714
877.898,4.216713063082016
878.016,4.8427448923272145
878.133,4.931670496079076
878.25,5.02282316116316
878.367,0.6429976344602011
878.484,4.131381038744598
878.601,4.444137248470729
878.718,-5.17708229230714
878.835,-3.957134736353506
878.952,-4.931078699153834
879.069,-6.200884399493352
879.186,-7.533359583450638
879.303,-10.42051105852434
879.42,-2.4439215583428346
879.537,-1.476206871453226
879.654,-5.910245286220808
879.771,-3.4143381690547128
879.888,-6.491933808809937
880.005,-7.930911191230205
880.122,-10.186434435515562
880.239,-13.25850354166602
880.356,-17.147118509681576
