wavelength_nm,intensity
792.446,0.27514839798946905
792.565,0.23314313672712075
792.684,0.19839234666234024
792.803,0.17089602779512753
792.922,0.15065418012548254
793.041,0.13122829293902466
793.16,0.1309792095770391
793.279,0.13417414498392538
793.398,0.15106670401370545
793.518,0.17621104833215315
793.637,0.20219090062072584
793.756,0.22935210103294162
793.875,0.2381785432118595
793.994,0.23646307144847303
794.113,0.2278484481915587
794.232,0.20855069837767085
794.351,0.19696734140218253
794.47,0.19100437724294167
794.589,0.18282712083423824
794.708,0.18300690541309927
794.827,0.1784253405816159
794.946,0.1726271244728222
795.066,0.176791589081348
795.185,0.18018461440603384
795.304,0.18667777963238838
795.423,0.18327494787612825
795.542,0.17295858186003132
795.661,0.16660924429676563
795.78,0.15507491947914848
795.899,0.1431169568175243
796.018,0.14193822374230114
796.137,0.13728736012769316
796.256,0.13538098982966146
796.375,0.13220762857223844
796.494,0.1298128979818098
796.613,0.12833278057620504
796.732,0.1277581236859547
796.851,0.12443178209597364
796.97,0.12304515267137661
797.089,0.12527840402188278
797.208,0.12834454829409409
797.327,0.14607261529399915
797.446,0.15342613145046674
797.565,0.163726807176045
797.684,0.16594240694971746
797.803,0.16306585368794135
797.922,0.1567681633309666
798.041,0.1525703568550883
798.16,0.14395311854975412
798.279,0.13761031860753786
798.398,0.12703898537051073
798.517,0.12850864258243636
798.636,0.13015546932480315
798.755,0.13252470319313878
798.874,0.1338538015525003
798.993,0.13844190400503315
799.112,0.13732070199504542
799.231,0.13273194578040765
799.35,0.13206118586072985
799.469,0.13794177599474716
799.588,0.14293782600076826
799.707,0.14099942135959415
799.826,0.14049471701457344
799.945,0.13491878002146243
800.064,0.13402835603452173
800.183,0.1395957941202684
800.302,0.13946634922348847
800.421,0.1497984055301042
800.54,0.15896415024149074
800.659,0.1676657238583634
800.778,0.17204266115099764
800.897,0.1743746305793511
801.016,0.17924581202332696
801.135,0.17977535932833572
801.254,0.1740869752531735
801.373,0.17946743737690474
801.492,0.18506167970895426
801.611,0.19446866263706702
801.729,0.2010115137833977
801.848,0.2062723374419232
801.967,0.19764137013238503
802.086,0.18689155984070677
802.205,0.16803640697186945
802.324,0.14916778572269046
802.443,0.1263922399941634
802.562,0.10971950822150683
802.681,0.09196759424507835
802.8,0.0775126449792955
802.919,0.06612002492722112
803.038,0.06242267819817756
803.157,0.05285210651798606
803.276,0.046944274891263696
803.394,0.04203466095107655
803.513,0.04176654546384482
803.632,0.04088345944310474
803.751,0.041821056163964504
803.87,0.04476265261155521
803.989,0.04207965579871767
804.108,0.03868449150500696
804.227,0.0390744800788761
804.346,0.03672480971210027
804.465,0.03991309607049754
804.583,0.04833575356864993
804.702,0.05213626793327579
804.821,0.0606206290841475
804.94,0.06409329646598498
805.059,0.07297942386893855
805.178,0.08269109990267168
805.297,0.08533898398136938
805.416,0.08628754174362749
805.535,0.08672248453831702
805.653,0.09019815943165671
805.772,0.09162778819306404
805.891,0.09804975970741506
806.01,0.11566197071135167
806.129,0.147772885620801
806.248,0.1782348161708465
806.367,0.20581629004125984
806.485,0.23203074735022455
806.604,0.2592356542481872
806.723,0.27074438676842655
806.842,0.266463456929935
806.961,0.2552474186821433
807.08,0.2483919736743623
807.198,0.23565463100835427
807.317,0.22189088183757621
807.436,0.21566108716423182
807.555,0.2174359557038843
807.674,0.22528492796061877
807.793,0.22783646588095055
807.912,0.24150326710962713
808.03,0.2686074946434277
808.149,0.2888557189826271
808.268,0.31611488813530064
808.387,0.33444562822068424
808.506,0.34591840382515165
808.624,0.3411994533763444
808.743,0.3285255256345163
808.862,0.3121441129955217
808.981,0.29340588796818545
809.1,0.27080000632797024
809.219,0.26570645019302674
809.337,0.2604729889676243
809.456,0.2567372967246602
809.575,0.2451486140770474
809.694,0.24985037556055667
809.812,0.25437889008625436
809.931,0.2621036475430481
810.05,0.2749035602205618
810.169,0.29574932312368407
810.288,0.31038630731610456
810.406,0.3103960181723937
810.525,0.3042695179116305
810.644,0.3034136477409673
810.763,0.30234595864830044
810.882,0.31056169144591095
811.0,0.3210270196466512
811.119,0.3372232264593754
811.238,0.35203084256118733
811.357,0.3625059771935015
811.475,0.3728157100132635
811.594,0.3811739629497525
811.713,0.385775045069099
811.832,0.39287611347777107
811.95,0.3916861708714784
812.069,0.3898745005033791
812.188,0.3889924798485175
812.307,0.3915852047814604
812.425,0.3969655713299063
812.544,0.3968798329188725
812.663,0.39105079441586066
812.782,0.3926909879618924
812.9,0.38877158856743677
813.019,0.3930072176701163
813.138,0.4027011065870161
813.257,0.41542975919508973
813.375,0.4362356426098096
813.494,0.4435106117383977
813.613,0.4534529302551782
813.731,0.45980413352947325
813.85,0.45930521746811126
813.969,0.4598176713831055
814.088,0.4665748609245736
814.206,0.47282799988312596
814.325,0.4776585525013092
814.444,0.47281081091782584
814.562,0.4782800891125446
814.681,0.4825202945499592
814.8,0.48897675352315123
814.918,0.484735703173061
815.037,0.4918302339606835
815.156,0.49448768134201615
815.274,0.4852192004048673
815.393,0.4712102904447326
815.512,0.4637488079656633
815.631,0.46129645073471415
815.749,0.4624142883588922
815.868,0.45722855176715094
815.987,0.46285996296389775
816.105,0.4625905174013738
816.224,0.4521021163763902
816.343,0.4339052063719516
816.461,0.4119779297966736
816.58,0.3862281061937579
816.698,0.36792659425252755
816.817,0.3509293377106707
816.936,0.3448924028582856
817.055,0.33693929127629474
817.173,0.3269941665605238
817.292,0.32470851866633677
817.41,0.31441820755915295
817.529,0.3092638515484494
817.648,0.3042402479587357
817.766,0.30513319141881146
817.885,0.3138314006498746
818.004,0.3182965002513922
818.122,0.32174565354181883
818.241,0.3228667599765216
818.359,0.32239427853095814
818.478,0.324479745675545
818.597,0.30193271149442746
818.715,0.3140754535739881
818.834,0.3278248574082435
818.953,0.4340188344512804
819.071,0.5639569022312595
819.19,0.696758143845347
819.308,0.800899997627557
819.427,0.830837504522328
819.546,0.7723319263266533
819.664,0.672393395722829
819.783,0.5321397492488402
819.901,0.46051488605410135
820.02,0.3914527487667038
820.138,0.3491096754828711
820.257,0.3254651470880611
820.376,0.3016465367431655
820.494,0.280088635757184
820.613,0.26932892345864695
820.731,0.26896272110459096
820.85,0.27863568963413365
820.969,0.29417682681769963
821.087,0.31902884389995073
821.206,0.35449861132868044
821.324,0.371007970189676
821.443,0.36985136945073677
821.561,0.3654449172880955
821.68,0.3486745161966567
821.798,0.3176651764594263
821.917,0.2861642076192742
822.035,0.26870474126921906
822.154,0.26215133435392507
822.273,0.25248471229486336
822.391,0.2504337649963539
822.51,0.25661760517178334
822.628,0.25554207093385783
822.747,0.2563121071182036
822.865,0.26743577375862854
822.984,0.27699694896822513
823.102,0.2830042733753183
823.221,0.28197842505736886
823.339,0.28967245569523065
823.458,0.2858419679470495
823.576,0.27681080265399804
823.695,0.2850101913989854
823.813,0.2913417818101333
823.932,0.2855009755892338
824.05,0.27721836790634935
824.169,0.27316363975617086
824.287,0.275113062777845
824.406,0.2625169327265063
824.524,0.2585295420731373
824.643,0.2625945392664266
824.761,0.258835311587685
824.88,0.2544118616103149
824.998,0.26062446731836186
825.117,0.26866760692026626
825.235,0.26713378544677113
825.354,0.2637942730394065
825.472,0.2653318259349623
825.591,0.2661914275276861
825.709,0.2624158557963206
825.828,0.25992623412538995
825.946,0.25986272362592555
826.064,0.24494383045617968
826.183,0.22317598243371456
826.301,0.2653998791616082
826.42,0.3152865113043767
826.538,0.3556076551374378
826.657,0.3712823264238253
826.775,0.3672405451969607
826.894,0.3313707147005564
827.012,0.26898792084784895
827.13,0.21206749960754245
827.249,0.22171744537308485
827.367,0.22253372181623685
827.486,0.22727144021551915
827.604,0.23343632128990544
827.723,0.24583678532129632
827.841,0.24671665353927386
827.959,0.2495904961773462
828.078,0.26136530987430073
828.196,0.28032954543938055
828.315,0.28728678618496506
828.433,0.2915433356750048
828.552,0.2887470995768536
828.67,0.27280697635870055
828.788,0.24073461943882318
828.907,0.20883323772140489
829.025,0.1769695758210277
829.143,0.14473804747991628
829.262,0.11748469606169176
829.38,0.09959189864162576
829.499,0.08902093904381392
829.617,0.08255480112498831
829.735,0.08473963265000604
829.854,0.09472747225655931
829.972,0.11062858635380213
830.091,0.12327191241948596
830.209,0.14011078899454144
830.327,0.1647409664419189
830.446,0.1892607804077684
830.564,0.2068156134428838
830.682,0.21897471453690145
830.801,0.22005973933518613
830.919,0.2143796338714574
831.037,0.196067537015902
831.156,0.1793349294059036
831.274,0.16673082948865886
831.392,0.16186465784559173
831.511,0.16808498397825164
831.629,0.1772223966231945
831.747,0.18114148014643358
831.866,0.1849402714423621
831.984,0.19079252950993594
832.102,0.19361460022107072
832.221,0.18631904859601298
832.339,0.18080957504167613
832.457,0.1793481964411841
832.576,0.1744879086570616
832.694,0.16575865379804125
832.812,0.15405741039636
832.93,0.15264678467378417
833.049,0.15349311774350552
833.167,0.1461110327207386
833.285,0.14659580017462134
833.404,0.1491120513498149
833.522,0.15641858460868258
833.64,0.16472919636698355
833.759,0.1690203980678951
833.877,0.1861670745563652
833.995,0.2036455233957868
834.113,0.21883108296859075
834.232,0.24256458206360426
834.35,0.2594460005366461
834.468,0.26914257347629716
834.586,0.2792353262515475
834.705,0.27238714160125144
834.823,0.2647452897555471
834.941,0.24426747274127183
835.059,0.2230607109799782
835.178,0.21104911322479375
835.296,0.20287509902566053
835.414,0.20228734029235662
835.532,0.21425965911933492
835.651,0.2279284906086561
835.769,0.240316602134382
835.887,0.25042831401067495
836.005,0.26689132473654864
836.124,0.2876979308877041
836.242,0.31140201068799395
836.36,0.3294922352930857
836.478,0.34890567439859455
836.596,0.3623084247112012
836.715,0.3631661339919394
836.833,0.36207824724834914
836.951,0.37505539843063396
837.069,0.37921852891399505
837.188,0.38539655420480934
837.306,0.39838678062919347
837.424,0.4116731612871196
837.542,0.41196602010918215
837.66,0.41288322174147124
837.779,0.4165128823471941
837.897,0.4273247734378878
838.015,0.4206321841685692
838.133,0.4120554525127872
838.251,0.41655069414546264
838.369,0.41530002063774046
838.487,0.40727506419853565
838.606,0.4126809964434055
838.724,0.42036267457560317
838.842,0.42364453374149336
838.96,0.4107470883341029
839.078,0.4019029679773969
839.196,0.40365960015244057
839.315,0.4124539813872614
839.433,0.41854897889074727
839.551,0.4299577547832595
839.669,0.43286500826301344
839.787,0.43435882807186743
839.905,0.4188966739267612
840.023,0.4106840877634358
840.142,0.405391203160813
840.26,0.4062502199657615
840.378,0.4062397331711276
840.496,0.4032899319526425
840.614,0.3975989062281058
840.732,0.39991777381340543
840.85,0.3967764202981702
840.968,0.3994326291296235
841.087,0.40104085730684347
841.205,0.40705217326089577
841.323,0.41492932626247303
841.441,0.4206797911366509
841.559,0.4306247936761822
841.677,0.4470224281915614
841.795,0.46290424440613576
841.913,0.4825543453936366
842.031,0.49505294271509914
842.149,0.5099515007238299
842.267,0.5167506000143463
842.385,0.5312078686022366
842.504,0.5441425252477003
842.622,0.5490411380991298
842.74,0.5479859394607877
842.858,0.544960301838129
842.976,0.5346059910189908
843.094,0.5309573181103155
843.212,0.5278924547613598
843.33,0.5361729789816907
843.448,0.5394515693370558
843.566,0.5458773704656457
843.684,0.5486832908191324
843.802,0.5516271549767632
843.92,0.5553601099950676
844.038,0.5658091631175144
844.156,0.5734431166160504
844.274,0.5779122077645278
844.392,0.5768923122798525
844.51,0.5767706859273773
844.628,0.5639360016820618
844.746,0.553560770475565
844.864,0.5343133337428038
844.982,0.510615084599549
845.1,0.4835885325799983
845.218,0.4548242808854927
845.336,0.42706551530839876
845.454,0.39665443687152613
845.572,0.3676835963518563
845.69,0.35064849058224234
845.808,0.32459146776433057
845.926,0.30667705196356
846.044,0.29200856501386163
846.162,0.2840679438861946
846.28,0.27035525713393177
846.398,0.2591079072794321
846.516,0.2472264081831318
846.634,0.23289460871748233
846.752,0.21082422721555033
846.87,0.19563665315452267
846.988,0.18157878001084726
847.106,0.16750906047329828
847.224,0.15068182482773035
847.342,0.14993317371465067
847.46,0.14425134754162378
847.578,0.13914645073585968
847.696,0.13686419830957802
847.814,0.14271956313275486
847.932,0.15328067964827247
848.05,0.15394534774887303
848.168,0.16099209918614307
848.285,0.17475289080071368
848.403,0.17469754593113268
848.521,0.18168910279079817
848.639,0.18828644110117942
848.757,0.20559305645273207
848.875,0.2193863542522882
848.993,0.226041223627905
849.111,0.23936119766347796
849.229,0.25148870961962366
849.347,0.2509168926871329
849.465,0.25827978642240945
849.582,0.26115917964194496
849.7,0.2729493503519367
849.818,0.28092939551428486
849.936,0.28164156735591367
850.054,0.28739555255091
850.172,0.29459304447363394
850.29,0.29979721573836815
850.408,0.30385403450891674
850.525,0.30603063346563164
850.643,0.3189923458676922
850.761,0.3261290379146561
850.879,0.3263757311375614
850.997,0.3304828895901913
851.115,0.32996271986399134
851.233,0.3264633562255383
851.35,0.32978861520064884
851.468,0.3367612129592705
851.586,0.3576380231659497
851.704,0.3839665555657995
851.822,0.4187724211805244
851.94,0.46080366557914687
852.057,0.5080728519626216
852.175,0.5557689450006282
852.293,0.6101961726711909
852.411,0.6585767546330792
852.529,0.7049411342633047
852.647,0.7458126046877477
852.764,0.7732701842428449
852.882,0.7940835795253444
853.0,0.8092144745916263
853.118,0.8103777422856704
853.236,0.8040149006275399
853.353,0.7927763011906992
853.471,0.7702524602982267
853.589,0.7428240960944261
853.707,0.7088417667885107
853.824,0.6752667312739788
853.942,0.6499415197617999
854.06,0.6227491636778861
854.178,0.5954214788382479
854.296,0.5692496454001597
854.413,0.5357269108540234
854.531,0.4995838977912511
854.649,0.45813560524681696
854.767,0.4138794044616263
854.884,0.37848429524691607
855.002,0.33353837544100423
855.12,0.289010209620155
855.238,0.24434083118463662
855.355,0.2055356988305117
855.473,0.17354995899311088
855.591,0.1457646406800081
855.708,0.12402111701650487
855.826,0.10618065009332509
855.944,0.09006137232644998
856.062,0.07905625934042645
856.179,0.07087926990497975
856.297,0.059337790545456806
856.415,0.04796822658208451
856.532,0.043170010227104344
856.65,0.03713852977746537
856.768,0.03152801948790805
856.886,0.026682739688196278
857.003,0.02315968631320308
857.121,0.02598695157451558
857.239,0.02311506708830966
857.356,0.02504733482209583
857.474,0.0286945296484773
857.592,0.0314410348025467
857.709,0.03950404718485654
857.827,0.044253630155381085
857.945,0.04220656039239268
858.062,0.04716181294495814
858.18,0.052351844354879745
858.298,0.0564839612676058
858.415,0.05461053196093456
858.533,0.05513259663032785
858.651,0.05308139259532789
858.768,0.0533162694083606
858.886,0.05102182016516074
859.003,0.05019875959173395
859.121,0.04725781849489927
859.239,0.04648620210018509
859.356,0.03917892109690452
859.474,0.03408162413374082
859.592,0.030721363780548988
859.709,0.03274288579051414
859.827,0.0349004065182103
859.944,0.03623558545216554
860.062,0.03903322269049874
860.18,0.04933699658263233
860.297,0.052818681962368774
860.415,0.059124731379546575
860.532,0.06573988734405273
860.65,0.07261525944865521
860.768,0.07775120648125955
860.885,0.0835896060676144
861.003,0.0874467019850684
861.12,0.09590676730528794
861.238,0.10281019143959048
861.356,0.10512483005692522
861.473,0.10460540994930552
861.591,0.1058178056576959
861.708,0.10238456784831787
861.826,0.10421738379430495
861.943,0.09753948905000487
862.061,0.09235437485071177
862.178,0.09449127556692935
862.296,0.08880292531599485
862.414,0.088173390829372
862.531,0.08572033284076076
862.649,0.0840305936573161
862.766,0.08814532977354428
862.884,0.08726447936430203
863.001,0.08897869856225414
863.119,0.09821525814650536
863.236,0.10071293442386162
863.354,0.10946123018663625
863.471,0.11145224083265687
863.589,0.11719780724740032
863.706,0.12101019911780925
863.824,0.12646418763374542
863.941,0.13073682802603856
864.059,0.13622546593353702
864.176,0.14074130582887112
864.294,0.13732897267748737
864.411,0.13357210689679544
864.529,0.1302159972864373
864.646,0.12869172909414647
864.764,0.1351668940180129
864.881,0.1432967308295055
864.999,0.14952150486717644
865.116,0.16811349664416986
865.233,0.18233639627378845
865.351,0.20164098874517664
865.468,0.2159299183473953
865.586,0.2318709047888205
865.703,0.24224772195502384
865.821,0.2398742167884046
865.938,0.2313984961341905
866.056,0.2322565370523348
866.173,0.23101927042411713
866.29,0.23215646776107451
866.408,0.2343501446596296
866.525,0.23624505227622286
866.643,0.23553275661827905
866.76,0.22920922081355682
866.878,0.2282354203136332
866.995,0.22253884236755717
867.112,0.2173358548107177
867.23,0.21656798937385305
867.347,0.21343612016549235
867.465,0.2146288872813701
867.582,0.22509592361805608
867.699,0.23858072583118717
867.817,0.24641375464703327
867.934,0.2527954315898925
868.051,0.2670098323121469
868.169,0.2785261568272765
868.286,0.2823522777018894
868.404,0.2966091729609653
868.521,0.3188164691783273
868.638,0.34266078570648184
868.756,0.35827292980911724
868.873,0.38196426600471395
868.99,0.41839481057734895
869.108,0.45047652962786255
869.225,0.4786376373349962
869.342,0.51097170855802
869.46,0.5488889081573092
869.577,0.5790041107961355
869.694,0.5987218809178512
869.812,0.6086109915537622
869.929,0.6149750169197876
870.046,0.6170948187004834
870.164,0.6070945248175277
870.281,0.5970144719577684
870.398,0.5887708368508108
870.516,0.5783913609469846
870.633,0.5666396383848702
870.75,0.5446349647308386
870.867,0.522455736594786
870.985,0.5082432534696433
871.102,0.48905760201215265
871.219,0.47077152721107207
871.337,0.44980306649338536
871.454,0.4321361044056916
871.571,0.4179935738257785
871.688,0.3938203712696312
871.806,0.37335073103802063
871.923,0.3600260568513988
872.04,0.34268662957828455
872.157,0.3187755856262219
872.275,0.29378387291467833
872.392,0.26990617082996804
872.509,0.2560545643867574
872.626,0.2341734517705618
872.744,0.21613057647252254
872.861,0.2032759572393596
872.978,0.18464077347423663
873.095,0.16959408990317953
873.213,0.15223962610165195
873.33,0.13349003396816297
873.447,0.12114861798738512
873.564,0.1068969091359458
873.681,0.09985096620525558
873.799,0.09181849625819714
873.916,0.08989216437136326
874.033,0.09449882874894142
874.15,0.08526504017281344
874.267,0.07448219018080167
874.385,0.06354669461632328
874.502,0.0548329651943847
874.619,0.051538460695332584
874.736,0.0481700801990432
874.853,0.054479349269789826
874.97,0.05792047289431636
875.088,0.05441715638809298
875.205,0.05395105041323896
875.322,0.05448773087714419
875.439,0.05349726819042102
875.556,0.05020851360622493
875.673,0.04808243544832679
875.791,0.05096500501619382
875.908,0.049158542711198974
876.025,0.04268548563982652
876.142,0.04274176230708536
876.259,0.05031040418861396
876.376,0.048539499560633255
876.493,0.04790417034677714
876.61,0.04906007318429481
876.728,0.05174280078588721
876.845,0.05346119336267041
876.962,0.053844571467153685
877.079,0.05639248131429485
877.196,0.0632862272395511
877.313,0.058895244016243395
877.43,0.057075591578285234
877.547,0.05054913635925239
877.664,0.04319636907720792
877.781,0.042848530384876474
877.898,0.04961934536397003
878.016,0.047455575535921404
878.133,0.05162340377788964
878.25,0.04979400640585194
878.367,0.04643271697777347
