wavelength_nm,intensity
792.446,200.80305440973902
792.565,161.4408182874887
792.684,128.00570435903313
792.803,100.49771262437233
792.922,78.91684308350612
793.041,52.7467884801152
793.16,44.62597439740992
793.279,62.03927356312644
793.398,79.30357717511046
793.518,107.32104165456397
793.637,134.03017089712745
793.756,170.94261280967604
793.875,192.00030216746325
793.994,185.55322962048848
794.113,171.13386270121936
794.232,157.02531829277288
794.351,134.2959946635471
794.47,123.79004765769807
794.589,118.18366775141618
794.708,127.67512334296964
794.827,134.6644144323585
794.946,130.77318604122792
795.066,126.86637323451285
795.185,119.81756908580653
795.304,110.54019350852877
795.423,105.02645429488749
795.542,100.96899213752329
795.661,99.47083733946636
795.78,88.95450072322765
795.899,82.93599960482459
796.018,81.07767164659465
796.137,69.24181108325271
796.256,64.51333877901857
796.375,56.16366212844447
796.494,55.02057739675985
796.613,54.54960265511072
796.732,53.73363146021341
796.851,57.33094151236311
796.97,64.44316002339913
797.089,70.37327237471389
797.208,74.55426818971983
797.327,76.05634140659167
797.446,96.71079557584429
797.565,112.25356143340849
797.684,127.56342685807223
797.803,130.2715606810044
797.922,128.5190884433303
798.041,122.92072875976864
798.16,105.77085392469199
798.279,90.2452215138579
798.398,84.38365836709302
798.517,85.60521210344513
798.636,83.12806454109608
798.755,83.10632823415847
798.874,86.9521243947533
798.993,90.02735778478541
799.112,92.27142234364894
799.231,91.54925313627885
799.35,86.29288479470955
799.469,91.04517446179827
799.588,84.07365460507737
799.707,87.20170184792332
799.826,86.12282268384267
799.945,85.88377035958872
800.064,83.37112496174169
800.183,89.24722415263925
800.302,98.24193806215138
800.421,113.68340521841668
800.54,126.3482489980585
800.659,136.65378541839294
800.778,142.45455993396553
800.897,147.26226085646448
801.016,146.11411762311923
801.135,144.65515187895159
801.254,147.38493072352838
801.373,158.25150610490152
801.492,163.05487802307107
801.611,177.22881271180353
801.729,196.56811536590408
801.848,207.00785092043768
801.967,202.94022716761202
802.086,179.88991943210252
802.205,145.3244601814414
802.324,117.57545114723042
802.443,81.77673408584727
802.562,66.99230569102633
802.681,54.42162218640571
802.8,38.79186084146656
802.919,19.530569257096666
803.038,5.168382808229053
803.157,-11.525877061417244
803.276,-17.564403906488565
803.394,-26.02665334874976
803.513,-22.235918491071025
803.632,-28.958241469739555
803.751,-31.739225485123438
803.87,-32.24281370319562
803.989,-30.709244488074674
804.108,-25.176043271076985
804.227,-17.28211777078234
804.346,-8.380198979978502
804.465,2.421280109211465
804.583,3.1601731109458058
804.702,9.210531918929519
804.821,12.452568327747912
804.94,8.68159386665922
805.059,16.51369284545615
805.178,28.45217813871415
805.297,35.62375806962105
805.416,43.03374940266457
805.535,48.191945717641204
805.653,51.109182869242886
805.772,57.248774828509326
805.891,59.97240588679412
806.01,78.28182744669132
806.129,111.05705503192041
806.248,147.69028353586182
806.367,183.9693994856906
806.485,210.25111283811668
806.604,241.00988246759906
806.723,263.4699507983802
806.842,260.6269888261309
806.961,254.73121300106783
807.08,247.6302423708101
807.198,240.2729946842755
807.317,223.8525435345375
807.436,212.5610967138041
807.555,212.8228966463176
807.674,218.8240905182251
807.793,216.6642454290935
807.912,230.39444363000513
808.03,251.2700963763712
808.149,283.8080867850749
808.268,320.05689970460105
808.387,350.3403446587595
808.506,366.41166840079677
808.624,371.79814365798563
808.743,354.8244457550012
808.862,335.1866785879475
808.981,306.47878155076387
809.1,284.58733473003065
809.219,266.29935111276086
809.337,246.34470082882456
809.456,236.52857868341658
809.575,233.1652703908224
809.694,235.15001404628006
809.812,247.05337242035225
809.931,269.558462396156
810.05,300.5960199044273
810.169,326.8162613953827
810.288,341.73087518071054
810.406,346.2039305244801
810.525,347.09170448296845
810.644,340.3076169695954
810.763,341.52439525708803
810.882,357.6234246268317
811.0,370.73370940783076
811.119,377.165206310042
811.238,379.6867465022964
811.357,376.7139144001785
811.475,378.28567104264914
811.594,375.10677833447045
811.713,374.2369765353827
811.832,383.8468284159486
811.95,385.519883759718
812.069,379.40332871387716
812.188,374.04694682820957
812.307,364.9000887520658
812.425,354.94890167159303
812.544,341.0695760629818
812.663,324.65778292190305
812.782,316.94036207519633
812.9,314.26017066571893
813.019,323.8959965722588
813.138,335.0599610069371
813.257,349.6135358312258
813.375,369.16970805811206
813.494,380.80466816378623
813.613,397.8837841136163
813.731,397.96290006344634
813.85,411.82556579682637
813.969,426.5877986297735
814.088,434.74483665752575
814.206,446.2507924341958
814.325,462.6545837087011
814.444,466.5345654593967
814.562,473.68554288108777
814.681,471.1966934629519
814.8,483.16931590628803
814.918,478.95319376087946
815.037,473.30330538170483
815.156,472.6923780414911
815.274,474.75331217313885
815.393,472.15883504937517
815.512,469.76002892128236
815.631,478.79672062868735
815.749,483.52518722786715
815.868,484.3315759049691
815.987,489.4652373093437
816.105,482.89933161415127
816.224,469.9316943172273
816.343,452.94500940125585
816.461,425.1713114982713
816.58,402.5950161926894
816.698,369.4498897182764
816.817,351.59480653390665
816.936,345.41591382572733
817.055,330.8777137582405
817.173,320.3862669375068
817.292,316.75888938084233
817.41,307.92371961638554
817.529,306.1924459558249
817.648,299.7702632043552
817.766,309.4978640026691
817.885,316.3865037620219
818.004,325.1054465516778
818.122,333.26508198202623
818.241,344.31216329982067
818.359,350.42017089727494
818.478,357.0656115436399
818.597,336.23996015203846
818.715,352.38264550252256
818.834,359.4358970546952
818.953,485.7769680485631
819.071,640.5751928090253
819.19,806.9314813869528
819.308,932.375564288851
819.427,978.3844697310984
819.546,915.2548731716972
819.664,801.4620313144068
819.783,635.4289034910103
819.901,550.4250132007928
820.02,464.82705390864953
820.138,410.7051696145865
820.257,369.53592232570765
820.376,340.9873326478314
820.494,313.7253230565351
820.613,294.69967710160245
820.731,287.17532984796856
820.85,288.83712978048203
820.969,311.52836694243285
821.087,344.2178725026522
821.206,389.56538672088027
821.324,417.5354117616192
821.443,426.3443978413191
821.561,419.3499207175561
821.68,393.8091232474726
821.798,349.3367240457877
821.917,316.1405153202935
822.035,291.85166590215874
822.154,283.6840286052362
822.273,272.70686749878973
822.391,277.2985375611745
822.51,286.3404240737757
822.628,281.36239716646327
822.747,280.5196025541019
822.865,276.37070363298267
822.984,277.2240404074859
823.102,271.93435167212937
823.221,273.0730659983416
823.339,287.3968933428325
823.458,301.3733661731346
823.576,303.4925277792913
823.695,320.122343529268
823.813,318.0429924441278
823.932,311.5062656881845
824.05,297.73343358606564
824.169,293.3121166354618
824.287,292.8743494684079
824.406,285.0209978857697
824.524,285.64816578365117
824.643,291.78182718802617
824.761,279.8488219257346
824.88,278.36516731279386
824.998,277.48151269985334
825.117,288.35197064102533
825.235,290.93844589821464
825.354,289.8928865233692
825.472,293.3520890532857
825.591,292.2424604143707
825.709,286.02114346376754
825.828,281.0309953443334
825.946,271.98630177035403
826.064,268.4844653392317
826.183,266.49604882152914
826.301,269.75178814798244
826.42,264.1599084268166
826.538,269.2849118225338
826.657,276.4809108892466
826.775,269.1868666659161
826.894,258.87290902267233
827.012,247.01349683397387
827.13,238.56014525133614
827.249,227.88601444791925
827.367,212.2993295319484
827.486,214.94294764628074
827.604,219.13028870433607
827.723,221.73061677537834
827.841,230.54999246546822
827.959,246.85421664040646
828.078,260.97315943006316
828.196,276.7224052500227
828.315,288.27424847257953
828.433,299.6269574960021
828.552,294.06797820773625
828.67,277.29774350821515
828.788,247.33183781302324
828.907,208.0926430800945
829.025,164.3101651517298
829.143,128.25844649898943
829.262,87.12797001612105
829.38,58.46168988379481
829.499,35.96557454657157
829.617,34.006128839108385
829.735,32.60150430058134
829.854,45.575575504875815
829.972,63.667990206785156
830.091,89.6496534201291
830.209,111.19842333678437
830.327,142.34696325543374
830.446,171.15034904449269
830.564,207.14914796307335
830.682,221.11581311475612
830.801,226.25563843959918
830.919,216.897628266607
831.037,204.24005099404786
831.156,181.97814471715975
831.274,165.52316484719807
831.392,152.77034947940086
831.511,150.6010838951533
831.629,150.20064947973685
831.747,158.83051809462324
831.866,168.462984112107
831.984,179.99068822482872
832.102,177.76774298690094
832.221,174.51709212126727
832.339,163.0543200435123
832.457,159.95085532506454
832.576,150.73793649271448
832.694,147.6536869253324
832.812,138.51244483723556
832.93,136.7299794625809
833.049,128.95855904582425
833.167,119.63830101827065
833.285,112.99483968842759
833.404,130.93110113377978
833.522,137.98401315749953
833.64,155.65514586163852
833.759,166.92337701014955
833.877,195.74726490071723
833.995,218.54286248339452
834.113,246.01724794485972
834.232,266.33925245394397
834.35,286.457793759565
834.468,292.7330450218961
834.586,302.0585127344438
834.705,295.9961016591128
834.823,292.8652923153835
834.941,280.46348730065876
835.059,273.88072990498176
835.178,256.9767603880926
835.296,247.82690342531595
835.414,240.63635382184663
835.532,248.15662672919981
835.651,260.6743022339557
835.769,272.7815881283219
835.887,290.5105190443333
836.005,318.43079195168673
836.124,351.3571254651007
836.242,376.5371386321942
836.36,395.32667560881146
836.478,421.2088532780692
836.596,445.8693859256821
836.715,457.9558925992689
836.833,465.9913170217736
836.951,481.1366981542352
837.069,489.18078058539805
837.188,490.4967244884224
837.306,496.91396709274557
837.424,504.7805603464192
837.542,505.9649025178418
837.66,500.7544394944591
837.779,501.5309894580894
837.897,506.0867602009405
838.015,503.3637430650035
838.133,501.5879120762526
838.251,507.37052264594337
838.369,506.5998864623873
838.487,501.44916369874477
838.606,492.45341929008043
838.724,500.2775883013296
838.842,496.6324932433148
838.96,493.8531990511009
839.078,490.4288832138652
839.196,498.49287906494146
839.315,501.98111734026025
839.433,495.1031218493455
839.551,486.9186328519372
839.669,487.512498832884
839.787,477.73407044153623
839.905,475.3885424830889
840.023,472.0256985073254
840.142,467.5511662198735
840.26,461.8930841488718
840.378,448.726776969645
840.496,449.07215810210636
840.614,450.59329681032546
840.732,444.85729266140163
840.85,449.84250063368984
840.968,452.57143154970106
841.087,456.2804490457987
841.205,463.3331894856194
841.323,472.8621204016303
841.441,489.8741682007578
841.559,505.451583965253
841.677,517.8818135825618
841.795,540.0384501262772
841.913,554.2435715184774
842.031,573.1534548154395
842.149,585.7975372466009
842.267,593.4710569071993
842.385,604.5315895548108
842.504,610.7332477435475
842.622,619.4362046335827
842.74,620.4473866318428
842.858,620.7702569417913
842.976,620.1277592863719
843.094,606.6627508084418
843.212,602.4782618110312
843.33,597.8790541989019
843.448,598.3144786214045
843.566,597.3299896239937
843.684,600.4407387218209
843.802,608.8294098975699
843.92,615.4120204672585
844.038,621.3859730282891
844.156,641.2248606542548
844.274,648.3182937347658
844.392,659.1104281139781
844.51,650.4861122767403
844.628,639.7016232793292
844.746,627.6496018143856
844.864,608.8832946351565
844.982,583.3897147286546
845.1,558.9896413156594
845.218,522.7142432273392
845.336,489.25616115633534
845.454,456.9634470506991
845.572,426.73999701432683
845.69,405.68797554938305
845.808,383.25846490695017
845.926,365.55795859352156
846.044,348.6799631026039
846.162,333.8521840619028
846.28,321.5906387874354
846.398,302.67974286361726
846.516,277.4008815718337
846.634,241.96617612420584
846.752,214.38601613112348
846.87,191.37555310773797
846.988,173.77115069041318
847.106,161.3269214332616
847.224,153.90433719775496
847.342,144.01681789731327
847.46,149.50851937609232
847.578,144.0547663094167
847.696,144.82612146784925
847.814,142.46327749208263
847.932,148.9012993171818
848.05,146.85360685656653
848.168,161.68556807560512
848.285,175.34956392667834
848.403,195.09321345740526
848.521,197.88361623488538
848.639,199.03765537600174
848.757,200.84191096733457
848.875,211.09638300888372
848.993,214.71535721493512
849.111,227.70662579328115
849.229,237.75850043223335
849.347,242.12466078547135
849.465,235.0206912685794
849.582,229.40416763913322
849.7,229.11837994042287
849.818,232.23778704690727
849.936,227.30870930490684
850.054,227.88179606507086
850.172,232.30683087718302
850.29,236.87905183648118
850.408,235.3144762589827
850.525,238.1239266555101
850.643,258.6026411213016
850.761,276.33676684250435
850.879,281.7011955940103
850.997,292.5911654710575
851.115,297.897585564555
851.233,301.92694938099623
851.35,308.1831530242773
851.468,317.34931337751505
851.586,349.497291912571
851.704,387.3076081099647
851.822,439.19671218614627
851.94,507.4633054398171
852.057,580.7861757497649
852.175,649.7739811246479
852.293,712.291656629401
852.411,764.411063735886
852.529,809.2057955176958
852.647,849.6247697237482
852.764,886.4818391678956
852.882,918.5328480059823
853.0,937.4704369306492
853.118,936.8270734743635
853.236,925.4910693254374
853.353,907.2000868215328
853.471,882.5394073479314
853.589,854.5350049306071
853.707,825.291641474322
853.824,794.7634295331882
853.942,770.5538323106693
854.06,738.4022437461592
854.178,700.3701357011297
854.296,662.4497159677885
854.413,620.1284304335816
854.531,563.6045474967772
854.649,510.8088030881114
854.767,448.1628422292291
854.884,402.09263894610456
855.002,349.93845297899736
855.12,295.3842670118901
855.238,253.64393385863573
855.355,208.19624139802193
855.473,166.39443638329544
855.591,128.75007411939535
855.708,92.25910671860817
855.826,69.35614851393657
855.944,44.63376384321478
856.062,25.553341640940978
856.179,15.628019516576078
856.297,4.759285181085987
856.415,-4.515652788392265
856.532,-13.825059304487173
856.65,-21.533830228961506
856.768,-25.274246470087046
856.886,-36.58231676398499
857.003,-30.032495469987115
857.121,-25.150133224098695
857.239,-25.51668469986653
857.356,-21.172320699332253
857.474,-23.269677371490985
857.592,-30.54399180261325
857.709,-26.20476602001781
857.827,-26.08242931016945
857.945,-14.164775004058537
858.062,-4.059569317934774
858.18,2.4811238365236328
858.298,19.19455036695882
858.415,16.946459443594584
858.533,17.76085938729762
858.651,16.002659308164123
858.768,3.8019593691363482
858.886,-1.6247530891303015
859.003,-8.253114698702358
859.121,-16.083423471281062
859.239,-17.799882642093067
859.356,-26.678805772615313
859.474,-21.444839046028214
859.592,-14.569897436628443
859.709,-12.792745431392762
859.827,-6.147114844814061
859.944,-7.246524144979393
860.062,-10.516263672810005
860.18,-16.240983766915193
860.297,-21.15189821601017
860.415,-5.23622530367734
860.532,11.117273278648767
860.65,26.011297490775764
860.768,41.774469658941
860.885,58.226315481156306
861.003,65.84131131613765
861.12,71.94209409112692
861.238,76.52053079997313
861.356,80.77429218414406
861.473,84.59775053801215
861.591,86.66103573170717
861.708,87.04120404228534
861.826,89.48890482039597
861.943,78.46560992751085
862.061,73.12629771860817
862.178,67.1930461157661
862.296,58.426028279157585
862.414,61.08758187112039
862.531,54.36238321052911
862.649,49.21709730705166
862.766,45.91857517254122
862.884,39.55420014138221
863.001,44.694225532828284
863.119,52.93116859039662
863.236,60.3161741182307
863.354,71.03260755469381
863.471,74.47570865202279
863.589,76.2001950307369
863.706,79.43204071681023
863.824,87.4093409483379
863.941,98.37019096341528
864.059,104.63060807805977
864.176,111.62695592863511
864.294,108.2362907921974
864.411,104.25688106701509
864.529,98.06794753230886
864.646,100.59503131361994
864.764,115.26410643692248
864.881,127.19725082429434
864.999,132.52866360993468
865.116,146.7267430622418
865.233,161.33780952753585
865.351,177.63026127421523
865.468,196.80150089968234
865.586,213.3640825164914
865.703,225.37341738005367
865.821,226.07192973279342
865.938,217.27520399029487
866.056,213.74254751186552
866.173,215.7717957953409
866.29,220.21836009613224
866.408,234.2121105441097
866.525,240.3686315548577
866.643,245.5459317863848
866.76,245.8366519313318
866.878,236.01914696805358
866.995,230.6596506627841
867.112,218.6525353098957
867.23,208.81511692670432
867.347,211.22012278593735
867.465,214.55846197850366
867.582,224.8509137251824
867.699,234.57799750649303
867.817,242.74837133109372
867.934,257.23909147604076
868.051,268.250157941334
868.169,279.84910319450614
868.286,297.01514801477776
868.404,304.49721015106667
868.521,326.8658523739357
868.638,355.5132824755925
868.756,381.48019309672986
868.873,409.3094413802048
868.99,442.83392775891787
869.108,477.1410981203147
869.225,515.8751083085515
869.342,545.1285990162688
869.46,591.9413970832935
869.577,634.3273553234785
869.694,665.3860408363909
869.812,677.7875834921604
869.929,686.1016802604839
870.046,698.304954517985
870.164,700.3523846196421
870.281,687.0327151541996
870.398,684.2922664679779
870.516,679.1674021973406
870.633,677.2745725587381
870.75,655.0639940023866
870.867,634.075926268546
870.985,623.9822308290776
871.102,601.289401190475
871.219,563.2753594306604
871.337,539.4188934284215
871.454,514.965890629646
871.571,495.4011995191821
871.688,462.01746078967085
871.806,432.57225019868775
871.923,410.0551781358433
872.04,386.43680737170007
872.157,346.51540630452655
872.275,323.9429229862708
872.392,294.2890543866297
872.509,271.0308567826596
872.626,244.78737779340844
872.744,227.8633793236379
872.861,204.57401288849945
872.978,179.73226550098008
873.095,145.20134062428315
873.213,123.6176018947724
873.33,105.68061641201493
873.447,94.36441015003678
873.564,83.10015194000674
873.681,83.5034261975093
873.799,70.13351026987695
873.916,49.48623510359135
874.033,28.457151690519105
874.15,19.18562012290632
874.267,11.365113894426575
874.385,3.3801229658069905
874.502,-5.715628113584743
874.619,-4.796010367510692
874.736,-7.646659007531287
874.853,-15.077849627425536
874.97,-15.770059891781194
875.088,-10.044979005004716
875.205,-8.471087348066868
875.322,0.9957762472926621
875.439,7.405877569727249
875.556,12.556888560153508
875.673,14.554082287757337
875.791,8.312322798798144
875.908,1.829073336412398
876.025,-8.226900408588394
876.142,-17.300474963757278
876.259,-9.309119718531303
876.376,-7.998846713348096
876.493,-9.736227106682408
876.61,-8.899698795840647
876.728,-4.126115886033508
876.845,-0.26795726840246026
876.962,-1.9958023804047584
877.079,-0.259303737249316
877.196,4.7762700097564945
877.313,1.2211526070597438
877.43,-1.2190129313780709
877.547,-3.397013776329648
877.664,-0.5846320890452366
877.781,-2.0508575348343365
877.898,0.12735091572561563
878.016,1.0912243904755767
878.133,0.6451807160319261
878.25,-4.4733726688812885
878.367,-8.114732562223708
878.484,-14.150749721969806
878.601,-15.059555495031189
878.718,-15.24893329031555
878.835,-14.125153735787729
878.952,-6.852179257385389
879.069,-2.9816120360700995
879.186,-11.323176449730791
879.303,-17.391280084779254
879.42,-22.80672486827338
879.537,-24.8463229591962
879.654,-24.473138608714777
879.771,-20.42660789386457
879.888,-15.011009320467112
880.005,-15.298862551215255
880.122,-18.76159496348407
880.239,-25.399206557273573
880.356,-35.21169733258376
