wavelength_nm,intensity
792.446,0.2539367665365629
792.565,0.21816321366509914
792.684,0.18764214555140973
792.803,0.16237356219549473
792.922,0.14235746359735396
793.041,0.12025022440368578
793.16,0.11497795838447736
793.279,0.12106237581652729
793.398,0.1310664688633108
793.518,0.14889946266182275
793.637,0.17297736337194425
793.756,0.20302920503516295
793.875,0.2164670264818273
793.994,0.21560336914298767
794.113,0.2088471352848742
794.232,0.19344537048601707
794.351,0.17751212424787396
794.47,0.16469685268936188
794.589,0.16600913410827287
794.708,0.16974294051179548
794.827,0.16979369997509805
794.946,0.1706185412537651
795.066,0.16590612225627638
795.185,0.1612168436023521
795.304,0.15866991288487525
795.423,0.15658728196407795
795.542,0.1523100507181393
795.661,0.14644807916938596
795.78,0.13823251074132303
795.899,0.13169349752763668
796.018,0.12285164689794328
796.137,0.11226680587396251
796.256,0.11346487850044278
796.375,0.1182310428120167
796.494,0.1139485691201544
796.613,0.11121601227668033
796.732,0.11006993389242598
796.851,0.1113990634160516
796.97,0.11099424398720871
797.089,0.10398540669934306
797.208,0.11668417626972094
797.327,0.13206673952314335
797.446,0.1405497308738376
797.565,0.15245450722128262
797.684,0.16025597813086997
797.803,0.16481108277717865
797.922,0.15575145431795948
798.041,0.14168977933534846
798.16,0.13296904493994355
798.279,0.11745400708894813
798.398,0.10926176828204659
798.517,0.11089447147497834
798.636,0.11910500394176902
798.755,0.12530456590654257
798.874,0.13163849115652906
798.993,0.134552124335156
799.112,0.13327138362705881
799.231,0.12764473710502536
799.35,0.12432092799899902
799.469,0.12277668595934574
799.588,0.12209908710931472
799.707,0.12264046184124153
799.826,0.12177251500382616
799.945,0.11211347700002008
800.064,0.11717169750318195
800.183,0.12416698870149391
800.302,0.12650435267909763
800.421,0.14115088650757873
800.54,0.15039825565859483
800.659,0.16457302506344001
800.778,0.16587355235681867
800.897,0.16048278804660343
801.016,0.16881126161930382
801.135,0.1634511022796094
801.254,0.16105514630424694
801.373,0.1707899555955072
801.492,0.17989176452087632
801.611,0.19114189308425772
801.729,0.20037433298136126
801.848,0.20349249693858987
801.967,0.19966855782649395
802.086,0.1791208684815866
802.205,0.1593472609520437
802.324,0.13544550170784594
802.443,0.11466940169046985
802.562,0.09824685245891163
802.681,0.09179168184694655
802.8,0.07691834023390103
802.919,0.0652407496110158
803.038,0.05371094178546183
803.157,0.04619893848877342
803.276,0.039593377244722186
803.394,0.036112150054397704
803.513,0.03780092427250291
803.632,0.03557524514133886
803.751,0.025670235598945323
803.87,0.025145956849540067
803.989,0.02395535354575347
804.108,0.025548959902151957
804.227,0.032986510478713926
804.346,0.03697334466716401
804.465,0.041196940471221855
804.583,0.04533040870832841
804.702,0.04719005698860278
804.821,0.04904328284957566
804.94,0.04870774715068769
805.059,0.049890038961248384
805.178,0.0551867619091798
805.297,0.055235693167595995
805.416,0.05944233530141066
805.535,0.07231775043159788
805.653,0.07887236487229694
805.772,0.09231053485844617
805.891,0.09900703142787695
806.01,0.11600668490149288
806.129,0.14084129033646312
806.248,0.16859057974514968
806.367,0.20073354858029252
806.485,0.22215656664354624
806.604,0.24203963216572308
806.723,0.25727298155684386
806.842,0.2516374733663407
806.961,0.2493580614553734
807.08,0.24152123477546833
807.198,0.23332834538974967
807.317,0.22817206624983857
807.436,0.21777412606123958
807.555,0.21778336877506232
807.674,0.220910586168516
807.793,0.21952319717882182
807.912,0.23242385064611065
808.03,0.2529339448326137
808.149,0.2792694338957844
808.268,0.31463413572525045
808.387,0.3434150365792925
808.506,0.35709275771272775
808.624,0.3530808058852112
808.743,0.330993259883104
808.862,0.3078479762412945
808.981,0.28324261156683994
809.1,0.2643745591709692
809.219,0.2523926251422509
809.337,0.23951642880417234
809.456,0.22998289241710818
809.575,0.21995669065093065
809.694,0.22008462093335768
809.812,0.2307996316278523
809.931,0.24200282892528657
810.05,0.2625136695744851
810.169,0.2843733683146803
810.288,0.2978532768337747
810.406,0.303769278858088
810.525,0.298036730517153
810.644,0.2897236606374378
810.763,0.2945237009317897
810.882,0.295901209766695
811.0,0.3057727176151318
811.119,0.3251295269368918
811.238,0.3431120984360039
811.357,0.3530866181364371
811.475,0.3582195807930383
811.594,0.3603286230696573
811.713,0.37481998854132526
811.832,0.3835404509131064
811.95,0.38224039805880017
812.069,0.38047977772129227
812.188,0.37746136774165395
812.307,0.3674396447516496
812.425,0.3586630215379498
812.544,0.3528849389725807
812.663,0.36504659437119835
812.782,0.38253948634197904
812.9,0.3912047104742833
813.019,0.4113662065819281
813.138,0.4199985863556249
813.257,0.422458466099188
813.375,0.4271495228399781
813.494,0.4282799525226307
813.613,0.4383201609402787
813.731,0.4423177538368318
813.85,0.4436810798805198
813.969,0.4535421372512176
814.088,0.44975711008317126
814.206,0.44425969749135813
814.325,0.44956583949334417
814.444,0.44983858353872197
814.562,0.4542713641868251
814.681,0.44902625598613344
814.8,0.4518451842862928
814.918,0.4516618396246434
815.037,0.44716543350766547
815.156,0.4398138075799171
815.274,0.4420684100821834
815.393,0.43484069696190886
815.512,0.43579496144839397
815.631,0.4328108887527547
815.749,0.4357507440096055
815.868,0.4435896339378515
815.987,0.44923690939173866
816.105,0.44687240073346896
816.224,0.4420057491194598
816.343,0.4223434604154419
816.461,0.4016174623701567
816.58,0.37382022320920383
816.698,0.34721284558507914
816.817,0.34242755840489336
816.936,0.3315481497776145
817.055,0.32360681832032046
817.173,0.3139232429314346
817.292,0.3064700980770799
817.41,0.29738443930739067
817.529,0.2908367537028307
817.648,0.2843398275615733
817.766,0.2913374540318478
817.885,0.2988546185382782
818.004,0.3142350210804359
818.122,0.32721778544424196
818.241,0.33806118772238314
818.359,0.3471390410302887
818.478,0.3533200647607282
818.597,0.33261447743747513
818.715,0.33847266041665025
818.834,0.34886863571868965
818.953,0.45149838661291053
819.071,0.5662613687319364
819.19,0.7077949231362844
819.308,0.8244937148986762
819.427,0.887130212256239
819.546,0.8419012096593563
819.664,0.7517395736591634
819.783,0.6044484673410431
819.901,0.511985295615998
820.02,0.4053044987481108
820.138,0.35147080928898744
820.257,0.3084951363679238
820.376,0.2862431479850651
820.494,0.2581435914323839
820.613,0.252774570424219
820.731,0.25573756602463493
820.85,0.2728281146024739
820.969,0.28969099205814697
821.087,0.3170013614018057
821.206,0.3372830380034474
821.324,0.34890947964930236
821.443,0.3513633876913015
821.561,0.3432317082466244
821.68,0.32665529632632717
821.798,0.29981950111734224
821.917,0.26941934653674193
822.035,0.2515411036752727
822.154,0.24556446203286886
822.273,0.24506536365097067
822.391,0.2504080823250437
822.51,0.25382343431900967
822.628,0.254415664398117
822.747,0.25186827237942044
822.865,0.24739649953139947
822.984,0.24343530716718698
823.102,0.2375310724062593
823.221,0.23787995564659314
823.339,0.24395495422507613
823.458,0.24997919334025645
823.576,0.250735645212402
823.695,0.2601704723838987
823.813,0.2617487796839288
823.932,0.25593859922264994
824.05,0.24401563574688723
824.169,0.24590895030447152
824.287,0.24684455322356702
824.406,0.24295502127813404
824.524,0.2410458548641975
824.643,0.2480166086774313
824.761,0.24717040514206673
824.88,0.2467213197607755
824.998,0.25477519094536344
825.117,0.26126671570800564
825.235,0.2617126390987705
825.354,0.255867374890797
825.472,0.2550935782369085
825.591,0.25377337088982155
825.709,0.24509154843846842
825.828,0.24543669936532406
825.946,0.24338047980034994
826.064,0.2360624446939062
826.183,0.23033437512914645
826.301,0.22826471923565111
826.42,0.23070369802373852
826.538,0.2347759371898562
826.657,0.23756724637027898
826.775,0.2478530410147896
826.894,0.2397250938835907
827.012,0.22875610973283805
827.13,0.2202235798206097
827.249,0.21376099096335288
827.367,0.2032436167434541
827.486,0.19813137890258514
827.604,0.20129218711734226
827.723,0.20788075203041512
827.841,0.21056680997075375
827.959,0.21730018864677814
828.078,0.24174040892575382
828.196,0.2611106545760359
828.315,0.27601257453029915
828.433,0.2815239937735837
828.552,0.27481208637598764
828.67,0.2544540944396473
828.788,0.22080045516846467
828.907,0.18548620513641087
829.025,0.1599931621463304
829.143,0.13419654783931395
829.262,0.1167923137254031
829.38,0.09743593757460159
829.499,0.08397237839620011
829.617,0.07835419450642045
829.735,0.07665727410496709
829.854,0.08471284056212035
829.972,0.09615318744587315
830.091,0.11354568837276058
830.209,0.12887628144333796
830.327,0.1451384698499249
830.446,0.16495739918079982
830.564,0.1847650117851592
830.682,0.19924879625077505
830.801,0.21162680945202927
830.919,0.21165907613032034
831.037,0.19430318566859825
831.156,0.1742717608235825
831.274,0.15622826848062357
831.392,0.14017125507725478
831.511,0.1392367354311838
831.629,0.1501016933214061
831.747,0.16428104792381293
831.866,0.17331034430692493
831.984,0.17282741145157654
832.102,0.17609843949253262
832.221,0.16806130415744602
832.339,0.15796915702130027
832.457,0.15702864253353266
832.576,0.16023174246918645
832.694,0.15446764040175937
832.812,0.14592128216924527
832.93,0.14114879328070357
833.049,0.13631896105611568
833.167,0.12444928807039302
833.285,0.11954334183016128
833.404,0.1193856430839758
833.522,0.12412858694341569
833.64,0.1301848851074702
833.759,0.13705614239558234
833.877,0.1586527920438825
833.995,0.17649853012200334
834.113,0.19345525721596715
834.232,0.21615228243929707
834.35,0.2392419470405265
834.468,0.24860416266918847
834.586,0.2527530828315966
834.705,0.25118484520820294
834.823,0.24501018629009957
834.941,0.2236151530081763
835.059,0.206980312336262
835.178,0.2005346874596463
835.296,0.197227938218139
835.414,0.189567818535739
835.532,0.19310314636234188
835.651,0.20873639509696001
835.769,0.2245793998490493
835.887,0.2314215574172768
836.005,0.2520911899592858
836.124,0.2770141669409735
836.242,0.2899631358221199
836.36,0.30347419111307294
836.478,0.3216163009676915
836.596,0.342517336945345
836.715,0.35536702628797323
836.833,0.3549184827080193
836.951,0.3661826852851372
837.069,0.3746424275147873
837.188,0.3756666548333041
837.306,0.38205347015720026
837.424,0.39165903262463714
837.542,0.40083015380321957
837.66,0.40207981285581584
837.779,0.40666765308325276
837.897,0.4139435054776397
838.015,0.41419887621966145
838.133,0.41252837320696745
838.251,0.4058386550288824
838.369,0.40140400065428455
838.487,0.4020870945209005
838.606,0.40201850045302095
838.724,0.4113411535588157
838.842,0.4167642855426586
838.96,0.41397931372539465
839.078,0.4125663403426919
839.196,0.4112944484094625
839.315,0.40776973206083295
839.433,0.40537665315877264
839.551,0.40009028484846465
839.669,0.4014287729618398
839.787,0.39884459960969865
839.905,0.4006167825492324
840.023,0.39955688602156014
840.142,0.404519450522201
840.26,0.39942641605006035
840.378,0.38825493584743487
840.496,0.38001406818783834
840.614,0.37563763790349924
840.732,0.3708461743603919
840.85,0.3702893936895724
840.968,0.3733835620630611
841.087,0.3792680079928008
841.205,0.38747619229402497
841.323,0.39815740750585893
841.441,0.4187576190171751
841.559,0.4319133580650103
841.677,0.4427072891438839
841.795,0.4486171148052747
841.913,0.46137051046016747
842.031,0.4658456348205645
842.149,0.4780250006625205
842.267,0.4910956429630542
842.385,0.5086107241533468
842.504,0.5171809428619496
842.622,0.5299903232190142
842.74,0.5327650055587745
842.858,0.5418584946170113
842.976,0.5363675955281014
843.094,0.5316627216576862
843.212,0.5265629690212844
843.33,0.5200994290399733
843.448,0.5240482971999532
843.566,0.5252748159089842
843.684,0.520890920997688
843.802,0.5287930555937048
843.92,0.5292753509951965
844.038,0.5394280706185267
844.156,0.5508139466150317
844.274,0.5640129804992129
844.392,0.5762916258796871
844.51,0.5744143527003045
844.628,0.566227230354793
844.746,0.5575108659580826
844.864,0.5282921571633007
844.982,0.5013023859776589
845.1,0.47073780494266265
845.218,0.44409215305970456
845.336,0.40821499701993613
845.454,0.3879441365576266
845.572,0.36697085469873275
845.69,0.35251867094883027
845.808,0.3284094993056105
845.926,0.3143589124859548
846.044,0.302446194826573
846.162,0.29283407519511123
846.28,0.2698266824906357
846.398,0.2493505447870288
846.516,0.22807718492449283
846.634,0.2162883800725844
846.752,0.19891006255582622
846.87,0.18597991624230506
846.988,0.17960072654560028
847.106,0.17114935640583695
847.224,0.1574734938593852
847.342,0.14712760139812242
847.46,0.14943574455311645
847.578,0.15087425866770596
847.696,0.15035704051975474
847.814,0.15903325693113696
847.932,0.1670749800512369
848.05,0.16738932134621354
848.168,0.17414638216714068
848.285,0.18491120120088544
848.403,0.1930447392325476
848.521,0.19875600581690267
848.639,0.20939019387891322
848.757,0.2322118783724142
848.875,0.24772270722495127
848.993,0.25273304533811347
849.111,0.2595214575922574
849.229,0.26902997990926353
849.347,0.27486889161457073
849.465,0.2810817811303868
849.582,0.2812341400204129
849.7,0.28932289029033775
849.818,0.2906628713291053
849.936,0.2875337802091582
850.054,0.2882071700607315
850.172,0.29235385083505394
850.29,0.30749891296673404
850.408,0.3126772051864121
850.525,0.31488084356401946
850.643,0.3238437016505229
850.761,0.32627501115029633
850.879,0.32444849743421755
850.997,0.32227637149006394
851.115,0.323211023285107
851.233,0.329437349129445
851.35,0.334906761800418
851.468,0.3470465651195075
851.586,0.3713611750042617
851.704,0.396276687358995
851.822,0.42869116395399004
851.94,0.4732319270394342
852.057,0.5251895434686211
852.175,0.5746830865395458
852.293,0.6277872696692148
852.411,0.672071996050059
852.529,0.7123721045616505
852.647,0.741751463836229
852.764,0.7709210670933366
852.882,0.7984969724952823
853.0,0.8124969608518725
853.118,0.8138533640699446
853.236,0.8102428045113196
853.353,0.7923748074662323
853.471,0.7708648189291845
853.589,0.741472184326323
853.707,0.7118794977210336
853.824,0.6865050718087282
853.942,0.6593540646808325
854.06,0.631175924883755
854.178,0.6016959541455053
854.296,0.5649618589311594
854.413,0.5336299142450611
854.531,0.49284999122042095
854.649,0.4424608539149837
854.767,0.40481308836119156
854.884,0.3668174711912377
855.002,0.3262689516022421
855.12,0.29163017717451967
855.238,0.2544317821634947
855.355,0.22493016400707264
855.473,0.18649792514310368
855.591,0.15142298734121254
855.708,0.1241227658130509
855.826,0.10050290583312141
855.944,0.08056954531168581
856.062,0.07208220455037695
856.179,0.06535602372855744
856.297,0.06173694273253973
856.415,0.054358630037071476
856.532,0.05226948945989174
856.65,0.03975959099584739
856.768,0.03853893723992567
856.886,0.031743031383058104
857.003,0.020408211232662427
857.121,0.017673600396054617
857.239,0.021447429362007314
857.356,0.02341472071565346
857.474,0.01998616430669804
857.592,0.02437382652474201
857.709,0.03618696898250663
857.827,0.03799063238940091
857.945,0.04083985152584605
858.062,0.04972262260404621
858.18,0.0584620468502879
858.298,0.05658392985940631
858.415,0.04709894337349022
858.533,0.04837442245319059
858.651,0.05260351192452432
858.768,0.04387931967950661
858.886,0.0439835018293826
859.003,0.04505611828682525
859.121,0.04263442214258092
859.239,0.039423519109520896
859.356,0.03368176298583531
859.474,0.028063924155978186
859.592,0.035248419009493354
859.709,0.028052859141991966
859.827,0.023939214851889573
859.944,0.02362626443402701
860.062,0.02353747550953034
860.18,0.024533436147163426
860.297,0.030539125190795012
860.415,0.03850502083251956
860.532,0.05391410161890303
860.65,0.06469404579441575
860.768,0.07253309830570041
860.885,0.0857653197839938
861.003,0.09927153736486868
861.12,0.10805154771524103
861.238,0.11661923052939255
861.356,0.12022105711391173
861.473,0.11799747108093529
861.591,0.11346209007960419
861.708,0.10945819051755915
861.826,0.10973973329110473
861.943,0.11018400493229674
862.061,0.10707959291848138
862.178,0.10024169066263439
862.296,0.09537996202958005
862.414,0.09125920360881183
862.531,0.09233023998718479
862.649,0.09331397615884193
862.766,0.09766963107770345
862.884,0.10156221188080569
863.001,0.10376732739656659
863.119,0.1057607636682606
863.236,0.10838943969393251
863.354,0.10920122551844991
863.471,0.1162982272401406
863.589,0.11903439389398263
863.706,0.1235329589721984
863.824,0.1348713617304379
863.941,0.14483179435255145
864.059,0.1541905780419902
864.176,0.15222626910147397
864.294,0.14862422100675365
864.411,0.14653599925876368
864.529,0.13600379149784927
864.646,0.1279983599616301
864.764,0.13437353225665152
864.881,0.13976412025614196
864.999,0.14860187298403466
865.116,0.16241106726479843
865.233,0.18737390714361019
865.351,0.20718167564642676
865.468,0.22189408978889819
865.586,0.23906087327458883
865.703,0.2512368071773219
865.821,0.2542670801332417
865.938,0.24492995914802512
866.056,0.23550848787820283
866.173,0.22682974699052877
866.29,0.21512708572287262
866.408,0.21530661764419579
866.525,0.2242511145375629
866.643,0.23162729330741919
866.76,0.2354525490341813
866.878,0.23340239688366898
866.995,0.22681375154374883
867.112,0.21942116588063915
867.23,0.21786218618384876
867.347,0.22675592361391325
867.465,0.23240553416878582
867.582,0.24378797822606824
867.699,0.2474609555629223
867.817,0.25661595493645595
867.934,0.25770990365992125
868.051,0.26823540854262473
868.169,0.2801814319351049
868.286,0.2944422361467221
868.404,0.3042884599764054
868.521,0.3221128770969426
868.638,0.33782629771424855
868.756,0.3612999445152856
868.873,0.38228787053988705
868.99,0.4146011285825305
869.108,0.44291409303931256
869.225,0.4718563255485074
869.342,0.49847780553700016
869.46,0.5284531424169416
869.577,0.5520126324279752
869.694,0.5713292284770687
869.812,0.5800035058746182
869.929,0.5892368838311919
870.046,0.5976827436438799
870.164,0.5991514166405489
870.281,0.5959875421481615
870.398,0.5968784530184161
870.516,0.5868680226817443
870.633,0.575452749551904
870.75,0.5523495786563299
870.867,0.5326942967145589
870.985,0.5130752661024407
871.102,0.4886866090976781
871.219,0.466292770648037
871.337,0.4480435633169209
871.454,0.43053437074957845
871.571,0.407479977048836
871.688,0.38146762191773465
871.806,0.3619205075145828
871.923,0.3424060603566007
872.04,0.3218660272354238
872.157,0.3090041094014589
872.275,0.29095128998210873
872.392,0.27811773773057735
872.509,0.264536976320724
872.626,0.25192661641518477
872.744,0.2379405257616062
872.861,0.21917632739332377
872.978,0.19439340031020655
873.095,0.17720274530430438
873.213,0.16131242831418321
873.33,0.14663735259254163
873.447,0.13807729927347057
873.564,0.1274577553771667
873.681,0.11183243264399301
873.799,0.09656242615393752
873.916,0.08817480571755643
874.033,0.08016488231771171
874.15,0.07918988090731466
874.267,0.07002171240363703
874.385,0.06617551234902715
874.502,0.06645467343981354
874.619,0.057873618264407393
874.736,0.05357591662698842
874.853,0.05871526775224763
874.97,0.05248887234147085
875.088,0.052755744594212034
875.205,0.05023919607480004
875.322,0.04908317994452138
875.439,0.050286374390010255
875.556,0.043834762850077376
875.673,0.03829585936836056
875.791,0.03796759237621187
875.908,0.033244183797287816
876.025,0.036474402470104264
876.142,0.04333435435184562
876.259,0.05012178310307478
876.376,0.053840678994765634
876.493,0.04977608472723412
876.61,0.04878817701112715
876.728,0.05042463305062536
876.845,0.052966787718281255
876.962,0.05190669412456193
877.079,0.059695985806563864
877.196,0.06345405329280718
877.313,0.06262494021659339
877.43,0.06030423673972221
877.547,0.06104112119758019
877.664,0.05684692452236731
877.781,0.05810236592473983
877.898,0.04760562449443795
878.016,0.047277267989520255
878.133,0.04214891402099785
