wavelength_nm,intensity
792.446,264.8301832475677
792.565,211.03624385362815
792.684,167.8881919055761
792.803,135.38602740341156
792.922,113.52975034713424
793.041,92.50637372375766
793.16,97.28299710038111
793.279,117.58343000081405
793.398,129.8829971003811
793.518,160.40074601813
793.637,192.25182826921218
793.756,225.13234774973154
793.875,242.15659017397394
793.994,244.29511831250204
794.113,240.92282394020776
794.232,220.5063737237577
794.351,188.81113562851962
794.47,170.4232568406409
794.589,153.40940402678805
794.708,145.57390619129018
794.827,136.55485857224258
794.946,135.48905770644168
795.066,139.16091917830312
795.185,139.44403606141998
795.304,139.85442567180954
795.423,139.01719623458015
795.542,133.5427373601213
795.661,123.80247761986156
795.78,114.6293174467014
795.899,105.30897112635512
796.018,98.00334342072742
796.137,91.53061614800006
796.256,90.22931744670139
796.375,87.85096246834644
796.494,80.05947323723342
796.613,77.61959731748291
796.732,67.78612823325594
796.851,64.72083092492808
796.97,66.72975858133594
797.089,66.49442147094595
797.208,83.35750122756885
797.327,101.88042660793514
797.446,109.41133885966077
797.565,131.77201087555522
797.684,131.00362766078135
797.803,136.06468167544494
797.922,131.14738071175367
798.041,121.16687628485897
798.16,116.9318264034188
798.279,107.05521808042013
798.398,99.1621595409712
798.517,103.32624385866492
798.636,100.4894623754928
798.755,110.08211812175776
798.874,116.36135395460279
798.993,112.20942095627908
799.112,110.49471739518481
799.231,109.85707011114685
799.35,111.00903321671939
799.469,108.14974091103645
799.588,105.16231007721504
799.707,105.25280132131567
799.826,101.99004581216954
799.945,96.78789636362949
800.064,102.10436163370406
800.183,117.73424681719844
800.302,122.14768178424258
800.421,135.03903882920858
800.54,139.2386209823997
800.659,148.9265148239025
800.778,156.63259048358714
800.897,165.55771376231962
801.016,170.54171149992683
801.135,174.2685663803914
801.254,168.42399268942754
801.373,175.98634540539013
801.492,172.00324357589835
801.611,185.20195992822485
801.729,195.52535160522666
801.848,201.93445756794284
801.967,190.6517886388841
802.086,170.55007209077752
802.205,145.03450272881793
802.324,118.13711518504014
802.443,81.48036520598747
802.562,69.44443116502583
802.681,53.02396646926225
802.8,38.948148574347705
802.919,27.244723921259357
803.038,14.980022522968227
803.157,8.333982818138596
803.276,-0.6656708478249409
803.394,-8.55561972011112
803.513,-6.908848719911813
803.632,-5.301558628001627
803.751,-4.6274560518849555
803.87,-3.5231093291698574
803.989,-7.151950471663837
804.108,-7.01183958343989
804.227,-8.481012177880864
804.346,-8.16088634368987
804.465,-13.057261143444338
804.583,-13.395579306990442
804.702,-9.777880199507987
804.821,-13.47075418544198
804.94,-13.42579920450489
805.059,-5.37768162621183
805.178,12.752636420522276
805.297,25.9102729450808
805.416,37.98419780083667
805.535,48.361381810446034
805.653,62.838870190402965
805.772,70.72391124896647
805.891,79.45249346650996
806.01,95.81823828187352
806.129,129.79714591678982
806.248,164.5944045604723
806.367,198.1795419920335
806.485,228.176800635716
806.604,257.9887778941171
806.723,281.4691534209165
806.842,280.6776674758546
806.961,274.29224213685353
807.08,270.26092935196505
807.198,264.2954174328774
807.317,239.63207001595424
807.436,223.68214251245084
807.555,198.63654401327625
807.674,192.5909455141014
807.793,236.66396173354113
807.912,339.94974851575125
808.03,458.9446262070522
808.149,535.9996770585262
808.268,567.3792545722972
808.387,551.4624741817653
808.506,477.5507726129274
808.624,396.0658945314907
808.743,342.6619524915676
808.862,330.4181672723789
808.981,314.2717683111539
809.1,284.42773396287106
809.219,277.2663672578334
809.337,263.3881354206583
809.456,256.8831585026615
809.575,259.4172136831395
809.694,267.26901778136653
809.812,281.7892201479918
809.931,296.80725801245273
810.05,319.1196681712862
810.169,349.2632471612886
810.288,361.4379949824597
810.406,364.7798423707305
810.525,362.97536941268083
810.644,363.35098303471773
810.763,356.16382609398397
810.882,366.8190933956745
811.0,379.64146026446474
811.119,392.7010565704843
811.238,409.8195273353786
811.357,424.5882145504895
811.475,432.65040825910705
811.594,439.00177945690194
811.713,442.02328052482665
811.832,448.7633963113659
811.95,445.39442118881414
812.069,432.5925456333618
812.188,431.14738003461963
812.307,420.65979019345326
812.425,406.8951440752309
812.544,392.93309535960594
812.663,387.3952890682234
812.782,383.9778290971873
812.9,394.23482800061004
813.019,408.8035152157212
813.138,431.59211585074604
813.257,444.65950436455876
813.375,457.72342967490835
813.494,463.9942813921841
813.613,474.09457033889703
813.731,475.64680733755785
813.85,490.15402269119704
813.969,495.47076185436015
814.088,515.302652532675
814.206,534.8704739469205
814.325,551.0971698200406
814.444,559.8727834420781
814.562,562.1349771506959
814.681,559.9348331969759
814.8,561.154602663169
814.918,555.5743721293625
815.037,560.9785571799714
815.156,562.4139110617492
815.274,565.3678796621416
815.393,561.6872162279021
815.512,552.5892367763464
815.631,550.9535949871283
815.749,548.2867843667411
815.868,548.7498438762244
815.987,552.4925570653613
816.105,546.2110278302556
816.224,540.164996430648
816.343,524.2280559401312
816.461,495.83570419420334
816.58,460.0156468205696
816.698,424.4510007023472
816.817,397.0716359694062
816.936,377.33382967802373
817.055,359.6462398368576
817.173,345.2322430692848
817.292,335.7134843969501
817.41,328.8336867635766
817.529,321.3434995198135
817.648,323.503528726267
817.766,326.02979169895445
817.885,329.86687718246446
818.004,334.9654345274464
818.122,337.1263295347661
818.241,344.50280895767025
818.359,355.3446367158899
818.478,362.865058804409
818.597,346.4627814578497
818.715,358.59910740366126
818.834,371.33363100663513
818.953,515.6617220102567
819.071,669.6366666022728
819.19,844.8569799835997
819.308,967.2172642244343
819.427,1014.4280962485168
819.546,946.0943540502459
819.664,820.9025841957323
819.783,645.5969278728771
819.901,562.3689831739589
820.02,453.4420848842042
820.138,391.0283747177607
820.257,346.34881795531567
820.376,311.0231615136716
820.494,279.1728011097357
820.613,263.4150813984405
820.731,270.89112792091146
820.85,282.20959868580655
820.969,303.79646771909995
821.087,341.5651549342115
821.206,394.0429330584139
821.324,414.5120531739583
821.443,421.65390056223
821.561,417.49791245266607
821.68,395.1453875465654
821.798,350.2378842854862
821.917,315.59358448761026
822.035,298.63673057718023
822.154,289.9681883550617
822.273,284.1031093364064
822.391,286.5436580233787
822.51,285.89329761944185
822.628,275.5606861332539
822.747,267.6895465085378
822.865,266.9023895678044
822.984,267.9386092504476
823.102,270.4640064222684
823.221,280.50109190577774
823.339,293.1277877788973
823.458,298.18651828405154
823.576,291.54827909223593
823.695,296.01393600431624
823.813,294.1531859899894
823.932,282.82490350813
824.05,271.70701063666
824.169,272.6003731764456
824.287,274.4296664521619
824.406,277.9109077798263
824.524,275.9653092806509
824.643,283.92014368190837
824.761,280.4524672606552
824.88,276.28695534156645
824.998,276.8764217774563
825.117,280.10052024797835
825.235,280.58609057997205
825.354,277.17642281672767
825.472,272.8446771314052
825.591,273.063580796732
825.709,264.1924411720155
825.828,262.2061500321476
825.946,261.3341446065655
826.064,254.31581883466308
826.183,251.81177877704636
826.301,251.67570408739485
826.42,257.8677679258817
826.538,263.0563685609052
826.657,271.0016791526384
826.775,275.4171196145014
826.894,265.39186743567154
827.012,250.009039499266
827.13,233.232272168921
827.249,217.6451152281865
827.367,201.58436521385903
827.486,198.59374506966145
827.604,202.4533413756803
827.723,210.05060001936155
827.841,218.17772879291311
827.959,236.0970653586725
828.078,258.833717941748
828.196,276.5210198754728
828.315,294.20399280486856
828.433,303.99259343989206
828.552,300.24526333898467
828.67,283.39403713418113
828.788,246.40190129596226
828.907,200.07352358225822
829.025,150.01595984788992
829.143,100.0094746759768
829.262,61.77810958259539
829.38,41.57848000298141
829.499,38.24486437186822
829.617,38.75615603025793
829.735,39.32031951866017
829.854,38.239237533711844
829.972,50.96786225088981
830.091,67.80360929257066
830.209,82.89408844869979
830.327,116.43644850886349
830.446,143.23572211538809
830.564,171.20619581204454
830.682,189.63917750379295
830.801,190.34958846548932
830.919,183.55090851809462
831.037,163.53750995598128
831.156,138.197704467461
831.274,126.77911110015287
831.392,108.46354803587496
831.511,118.85707588068789
831.629,139.18220545710255
831.747,150.33330905949134
831.866,155.3969667744345
831.984,158.85802708678034
832.102,169.97449865453746
832.221,167.71521264653705
832.339,142.47052785828407
832.457,144.9953297027535
832.576,140.25836885774658
832.694,127.17536384942927
832.812,114.26969854260113
832.93,106.71419249796497
833.049,106.69966168057871
833.167,101.84325065577744
833.285,97.91224211298335
833.404,113.85942891347486
833.522,127.87059129006714
833.64,135.7775395651331
833.759,156.79820276463212
833.877,174.7484750079732
833.995,202.09701564958266
834.113,236.8992359448719
834.232,262.98803632674117
834.35,284.8136332454069
834.468,293.1136890385316
834.586,289.51244613035766
834.705,278.8635841745646
834.823,259.94286074690996
834.941,245.0567693538872
835.059,226.83214982233622
835.178,208.52268180593666
835.296,204.03572461204823
835.414,208.51240378179608
835.532,226.41072797318893
835.651,238.52550238103197
835.769,260.1814023300004
835.887,269.766306607973
836.005,290.3996957344303
836.124,312.53871256651524
836.242,333.72188524275623
836.36,362.1301661441054
836.478,387.3332522402595
836.596,408.0523556524311
836.715,427.93163222477574
836.833,433.4290906153019
836.951,451.2313109105901
837.069,448.8084229807701
837.188,443.84787271328787
837.306,452.00074235922557
837.424,461.6834821350333
837.542,468.64241238703164
837.66,476.7234205611078
837.779,484.8814850122402
837.897,489.8646576884808
838.015,479.6789991958901
838.133,473.2690982790572
838.251,484.5379852410119
838.369,493.5367423328366
838.487,492.5233782125403
838.606,496.79486257709254
838.724,501.2074724827705
838.842,498.0183507867169
838.96,480.7746836361178
839.078,473.3526615071637
839.196,481.3280419756121
839.315,486.07311941375747
839.433,487.457157890864
839.551,493.43513576190986
839.669,501.3594339792761
839.787,501.3547278676381
839.905,495.3283767343551
840.023,491.10722040626695
840.142,495.8826008747154
840.26,487.5038687890515
840.378,474.8809808592317
840.496,479.48060375192273
840.614,486.55468551907256
840.732,483.9292001866554
840.85,479.88813043865383
840.968,473.5509567945485
841.087,475.25360999027
841.205,474.06621989594817
841.323,486.9922497150462
841.441,516.3944700103345
841.559,538.2443093532418
841.677,553.1002093022092
841.795,563.5509144459818
841.913,573.1081130962477
842.031,591.0462641274661
842.149,603.7835493578186
842.267,624.2221332894701
842.385,643.6555224159265
842.504,658.2741929276643
842.622,658.2816080281466
842.74,662.1487633883692
842.858,661.9033646360377
842.976,658.7272299529707
843.094,646.1779350967433
843.212,642.2251770370528
843.33,641.2758821808255
843.448,650.7681457661565
843.566,643.3943920354704
843.684,654.8353569195028
843.802,669.8152828424963
843.92,696.6969403672217
844.038,746.2638792772282
844.156,793.666532472949
844.274,829.7371510366353
844.392,839.644999037551
844.51,807.8160505016704
844.628,757.4862361649239
844.746,696.6042573260131
844.864,641.8724949373186
844.982,603.9022044100961
845.1,577.5531260040859
845.218,555.5832683772967
845.336,515.3292116163079
845.454,482.6872760674405
845.572,449.327591600824
845.69,414.9047036710041
845.808,380.94242180179003
845.926,358.1013520537881
846.044,339.35119139669524
846.162,330.7005978391696
846.28,300.7746796063193
846.398,283.952657477365
846.516,262.1315011492767
846.634,235.02463053547424
846.752,205.725552129464
846.87,183.0836165805967
846.988,156.46678925683773
847.106,146.24823033134737
847.224,124.26257183875757
847.342,123.59552806478243
847.46,124.10337606569915
847.578,123.65624571163771
847.696,126.72340107186207
847.814,135.89618413771439
847.932,142.31831785291754
848.05,149.5551701828394
848.168,158.0734077941466
848.285,174.2929441067525
848.403,177.04581375269166
848.521,182.60387820382581
848.639,192.89441018742764
848.757,209.0680590541465
848.875,228.4373789165363
848.993,241.01189358412086
849.111,247.95523942053651
849.229,255.9349488933159
849.347,256.4358704873072
849.465,260.81904316354957
849.582,257.22905566663167
849.7,264.0728344034799
849.818,270.93392915764395
849.936,266.373378890163
850.054,260.13923554908916
850.172,267.4825813855047
850.29,273.98696618295924
850.408,271.86970595876886
850.525,276.46759724972986
850.643,297.67154914675143
850.761,309.6789642472361
850.879,313.4837819451233
850.997,319.81067756508867
851.115,334.51592816340906
851.233,340.049750190301
851.35,346.46928650290715
851.468,362.8559223826127
851.586,396.9100907298505
851.704,427.521834834664
851.822,468.33877374467227
851.94,520.3842840832519
852.057,596.3821753742127
852.175,666.5852614703683
852.293,735.60566358384
852.411,794.498792970039
852.529,852.7187107593539
852.647,891.7358746901995
852.764,919.7249501362057
852.882,936.3691188643229
853.0,951.1174849511631
853.118,951.7762392043835
853.236,950.9198410913361
853.353,946.2061001275399
853.471,927.8729111871388
853.589,898.3716418244701
853.707,859.5090249472569
853.824,823.1030035485994
853.942,785.4361782056828
854.06,753.9853308609555
854.178,719.7194795346691
854.296,680.9776077379692
854.413,635.2378366912673
854.531,582.3673297138293
854.649,517.5704158099844
854.767,462.2574845901221
854.884,404.7852460109524
855.002,355.5355182542934
855.12,293.5386043504481
855.238,246.31571642062875
855.355,210.94823974622048
855.473,176.90110939215836
855.591,135.46939911240304
855.708,107.2109585666594
855.826,78.24020960617142
855.944,58.20812441304183
856.062,32.56667852792574
856.179,23.954261834542066
856.297,14.294645515059319
856.415,6.930454381489991
856.532,-8.725016300554431
856.65,-18.038854286136132
856.768,-25.712698672121533
856.886,-29.17563693961967
857.003,-29.30630269461324
857.121,-27.616619679136456
857.239,-28.444302859482477
857.356,-32.25679916662368
857.474,-32.30361267555802
857.592,-35.53019248415545
857.709,-30.316263617520484
857.827,-19.244730349012613
857.945,-15.215801501323604
858.062,-9.272492505374615
858.18,-3.8686831263858807
858.298,-2.5706029894733264
858.415,0.4178708912707414
858.533,-4.3004403062576655
858.651,-0.00027805519722789995
858.768,-1.1857661992519661
858.886,-3.7758885279017536
859.003,-3.752403144614237
859.121,-9.25541938190541
859.239,-11.886739288513454
859.356,-20.7095202862519
859.474,-30.34779983210723
859.592,-26.899197840820904
859.709,-27.991525606236234
859.827,-23.70552265737147
859.944,-17.650085503550315
860.062,-12.634902280509733
860.18,-10.311439393354267
860.297,-3.2538305956159386
860.415,-1.90830913671632
860.532,10.456693352942283
860.65,13.21032551377054
860.768,21.181464059877904
860.885,33.35624940054516
861.003,44.98353955555854
861.12,47.88887866628582
861.238,58.484611584129695
861.356,68.15591216020786
861.473,77.11717976965699
861.591,76.26297734852956
861.708,73.07544159406866
861.826,73.73379328549501
861.943,71.28293253408609
862.061,57.1387378944508
862.178,43.841955895256746
862.296,40.710065865270565
862.414,47.07710677318497
862.531,42.383190514004596
862.649,36.86735434669911
862.766,46.13126313379029
862.884,43.07341682089405
863.001,39.53922350719263
863.119,40.3990800971056
863.236,46.93757422631958
863.354,64.08369570930762
863.471,67.65932138781358
863.589,76.34711462286694
863.706,88.74485900431551
863.824,96.0646896531843
863.941,103.28322160075444
864.059,110.53898298555384
864.176,109.83630281191162
864.294,104.7656572703041
864.411,103.18072601441072
864.529,95.3040198667423
864.646,98.82125311301331
864.764,106.52809674889463
864.881,120.1163256661612
864.999,127.41710869598188
865.116,142.69105189896274
865.233,170.61174834869678
865.351,205.21383007981595
865.468,220.9198079148311
865.586,244.71496323902377
865.703,252.67808393118176
865.821,250.00743838957357
865.938,229.89350280467545
866.056,222.44536808557808
866.173,224.23965760890482
866.29,232.76035405863843
866.408,238.81438384170525
866.525,251.750664707023
866.643,254.195170680566
866.76,255.74097535540784
866.878,242.84002678349646
866.995,231.09319076569767
867.112,225.33250193404615
867.23,232.5882633188449
867.347,239.76523682485595
867.465,242.70411509277176
867.582,253.275893793588
867.699,262.60784565457755
867.817,270.3389317147012
867.934,279.6016195064267
868.051,306.1794588133038
868.169,339.49063145351437
868.286,352.4373019292228
868.404,361.01600703696596
868.521,374.45531820531517
868.638,388.3933306723658
868.756,417.3521223601957
868.873,449.3403512774629
868.99,497.45152391767374
869.108,550.1878047829928
869.225,589.643566167792
869.342,632.3677258209892
869.46,672.9732707555715
869.577,710.7511100624483
869.694,744.281330321706
869.812,761.553541922955
869.929,772.2577881562385
870.046,781.8867097141972
870.164,775.33121568774
870.281,758.5852454708067
870.398,742.8271540417521
870.516,723.5002314438665
870.633,705.0027460754179
870.75,669.5121871138957
870.867,647.4986844294299
870.985,621.6765237363059
871.102,597.2179994068181
871.219,567.4148863327416
871.337,542.1485697954616
871.454,517.4069285828571
871.571,492.41247351743846
871.688,456.90026953427093
871.806,430.8313555943935
871.923,402.2654719575464
872.04,384.90564892676014
872.157,356.4341375842858
872.275,329.9972582764435
872.392,303.81146121968357
872.509,273.9373524746118
872.626,246.52904459534082
872.744,218.56056355589652
872.861,201.57996130433082
872.978,186.63572268912876
873.095,168.57200355444616
873.213,150.15763506911424
873.33,127.16924060975649
873.447,102.8691578387104
873.564,82.18898848757776
873.681,62.12267195029784
873.799,50.51782727448968
873.916,41.62380510950405
874.033,34.05594428148724
874.15,28.312103880857265
874.267,19.802239837163775
874.385,10.90425543975769
874.502,4.443533220624507
874.619,0.0396237984130378
874.736,-4.428092882027407
874.853,-4.305900261208209
874.97,-11.790591123914423
875.088,-8.818953524578163
875.205,-10.545054125756465
875.322,-17.329606009793114
875.439,-13.753295736354968
875.556,-12.082999635621611
875.673,-14.5704624923823
875.791,-13.470075920028766
875.908,-14.317884176369567
876.025,-10.543786945880866
876.142,-6.970572607762407
876.259,-8.971742344999928
876.376,-1.424630120016508
876.493,-4.940558539336578
876.61,-6.554332877503361
876.728,-11.579022005817269
876.845,-4.64507001734469
876.962,-5.126452017395755
877.079,-3.5916310240858973
877.196,-3.980191934428502
877.313,0.31464867090217696
877.43,-2.793226429649286
877.547,-4.96483596170964
877.664,-11.56725406039154
877.781,-14.90149473391508
877.898,-18.08325180995326
878.016,-22.061041552948296
878.133,-17.04162437498896
878.25,-9.352646282113279
878.367,-7.681668427162416
878.484,-5.103698980032506
878.601,-4.869203961181054
878.718,-15.086968269254218
878.835,-19.829729708146655
878.952,-23.114380121911392
879.069,-14.262629794561171
879.186,-14.988576096625867
879.303,-18.472014974756497
879.42,-20.843548587504742
879.537,-29.37030058093236
879.654,-31.32283385917188
879.771,-36.12388913789064
879.888,-36.08546977930725
880.005,-39.39587884348394
880.122,-42.850272581320894
880.239,-46.44865099281816
880.356,-50.19101407797572
