wavelength_nm,intensity
792.446,268.47658453882553
792.565,233.08325120549227
792.684,201.72325120549232
792.803,174.3965845388257
792.922,151.10325120549214
793.041,119.73961484185581
793.16,103.2348529370939
793.279,110.5084460106869
793.398,125.16299146523231
793.518,153.2564979587388
793.637,188.16299146523227
793.756,224.55260185484264
793.875,249.89459319683397
793.994,248.3309568331976
794.113,235.84351094575175
794.232,220.49372739596816
794.351,200.60801311025392
794.47,193.9629914652323
794.589,180.87987458211546
794.708,179.04957155181245
794.827,177.39848930073026
794.946,170.43312133536224
795.066,167.5880996903406
795.185,172.1006538028946
795.304,174.26082696306776
795.423,170.5932944955353
795.542,166.11883562107647
795.661,160.4409135431544
795.78,154.32835943060036
795.899,149.79848930073024
796.018,136.33442003666096
796.137,126.06342436566528
796.256,119.13355423579517
796.375,107.78463648687745
796.494,106.38896549120642
796.613,95.03745033969129
796.732,93.85996116220208
796.851,93.8045499067908
796.97,83.72662782886874
797.089,80.83918194142291
797.208,89.91450661674762
797.327,106.29545899769998
797.446,117.61580531804628
797.565,130.18203908428004
797.684,139.65649795873884
797.803,143.06082696306777
797.922,139.13355423579506
798.041,135.63745033969116
798.16,126.7422122444531
798.279,114.25130315354401
798.398,103.46515596739684
798.517,102.48074038298124
798.636,99.67900878124962
798.755,107.31277501501587
798.874,115.40454990679075
798.993,123.95952826176912
799.112,125.63485293709388
799.231,121.2348529370939
799.35,123.95779666003762
799.469,121.88074038298132
799.588,123.16645466869556
799.707,123.63398713622803
799.826,122.18809969034058
799.945,117.19935510159598
800.064,122.99762349986443
800.183,133.88853259077354
800.302,132.2002209024619
800.421,140.83225553449648
800.54,157.03398713622806
800.659,164.25216895440988
800.778,165.58377068601158
800.897,166.61147631371716
801.016,171.3292252314661
801.135,174.24697414921508
801.254,166.31883562107657
801.373,176.0954589977
801.492,189.1413464435874
801.611,200.71970142194232
801.729,208.1067144089553
801.848,210.6270607293016
801.967,195.38723388947474
802.086,170.55952826176912
802.205,137.32056722280805
802.324,102.35403898738342
802.443,72.75711543416104
802.562,61.03730028599763
802.681,51.943894906216634
802.8,41.21765134096964
802.919,26.92973145904811
803.038,16.050737523520848
803.157,9.685005285316056
803.276,-0.018300937649167737
803.394,-6.286316119745541
803.513,0.06903017324029181
803.632,-1.3962010615310483
803.751,-5.440138196621604
803.87,-9.77061043328783
803.989,-11.321732228576938
804.108,-9.113210334972045
804.227,-7.408757810167815
804.346,-0.25691695723328745
804.465,4.7960670801960905
804.583,5.023559704321271
804.702,7.065631389863579
804.821,6.732073171318151
804.94,11.911679868619075
805.059,8.5463692170681
805.178,13.160153933054925
805.297,14.046778874789881
805.416,15.466759334608083
805.535,12.364485044881302
805.653,19.201996718632596
805.772,34.7034169357655
805.891,59.24604902294612
806.01,87.89908051739513
806.129,124.41284855791504
806.248,164.7658470405277
806.367,206.3850297884161
806.485,235.39324782670252
806.604,266.2802537437769
806.723,287.99323368682536
806.842,292.11981698378236
806.961,292.5649685102369
807.08,281.39693316820836
807.198,267.47432756941026
807.317,242.88026859695935
807.436,216.93943157553102
807.555,208.5557126090215
807.674,207.52738009569907
807.793,214.23538641651612
807.912,238.87470235405584
808.03,272.6386104629561
808.149,320.77843023284413
808.268,362.07236255684484
808.387,383.3273338418844
808.506,402.6645562091752
808.624,395.0346790093663
808.743,377.27666328141913
808.862,351.7376951725197
808.981,325.2861729510663
809.1,311.45110094606343
809.219,295.1251198501518
809.337,275.5913465464482
809.456,271.1432875284589
809.575,258.7956614109024
809.694,267.50084914615974
809.812,267.77313644851637
809.931,288.5761596816086
810.05,311.14108767660554
810.169,335.5051498707368
810.288,346.2207272163831
810.406,356.34842577415066
810.525,355.6882455440396
810.644,355.2618315476949
810.763,350.9393136552461
810.882,364.2445013905028
811.0,375.14968912575955
811.119,383.94751755365695
811.238,397.65616849237665
811.357,419.7466376129145
811.475,438.5790980754439
811.594,448.57865810507315
811.713,462.3132830697671
811.832,479.81500760156075
811.95,480.3288533454756
812.069,468.0929155396067
812.188,467.0543803311401
812.307,462.84787975470795
812.425,462.4257947626911
812.544,463.6279521949166
812.663,468.30456850160067
812.782,476.12750515460505
812.9,484.08204353921116
813.019,493.3430754303107
813.138,507.23787355517663
813.257,517.7318058791766
813.375,533.7374265148649
813.494,544.0668566743625
813.613,552.488061725635
813.731,548.485024352665
813.85,557.7555800532882
813.969,565.1334950612707
814.088,573.2568646147074
814.206,587.3101042980142
814.325,603.8135604315374
814.444,612.6451550931993
814.562,623.950342828454
814.681,622.2234959316743
814.8,630.4533589916049
814.918,615.4858194541328
815.037,599.5658989642795
815.156,590.1542035826515
815.274,582.0247592832745
815.393,563.2078690964515
815.512,564.1450914637412
815.631,561.8113181600352
815.749,571.3069820857663
815.868,566.0987499076014
815.987,572.9597817987005
816.105,575.531636200622
816.224,569.1285988276518
816.343,549.9567302858503
816.461,523.8922210514081
816.58,487.17749536674967
816.698,451.33636275568415
816.817,419.6025894519777
816.936,402.7493356287909
817.055,388.0406705501928
817.173,383.44282798241727
817.292,375.06836203801845
817.41,360.75017314989697
817.529,350.85449508428644
817.648,340.680894940754
817.766,335.2311043210311
817.885,333.51637863637325
818.004,335.26399061405283
818.122,349.8185289986588
818.241,356.9462275564248
818.359,368.0831931548306
818.478,373.10415240062844
818.597,351.55837099272577
818.715,361.40223839592625
818.834,368.29453654354904
818.953,499.58814920133347
819.071,652.1541426098313
819.19,841.6532123865455
819.308,995.3267418779999
819.427,1080.7837213185094
819.546,1028.3287265262147
819.664,918.2230768947735
819.783,736.1696950514358
819.901,621.9519723474468
820.02,486.74106249364064
820.138,412.18624254479954
820.257,359.2729860500227
820.376,324.50887086029354
820.494,282.3309417124334
820.613,269.33050174206244
820.731,269.9993258409557
820.85,283.4248598965588
820.969,305.2677099694779
821.087,346.92787605971324
821.206,391.17938414129037
821.324,415.86639005836537
821.443,424.6148678369121
821.561,422.14862700074013
821.68,404.82524330742524
821.798,361.6594353716861
821.917,317.73345427577397
822.035,293.31136928375815
822.154,273.00270420516216
822.273,255.88018631271336
822.391,254.26762513022118
822.51,260.0204319130968
822.628,271.7723728951066
822.747,278.75288530568815
822.865,283.310021092893
822.984,288.45070666364785
823.102,280.9922580352685
823.221,273.05761893069865
823.339,280.7013348044838
823.458,282.13812427134235
823.576,288.01127737456466
823.695,297.9233915167481
823.813,302.3705705939964
823.932,297.61861547211066
824.05,285.6060542896189
824.169,273.3657874794216
824.287,267.1636159073195
824.406,258.7545179282911
824.524,259.9107879146305
824.643,270.70428733819926
824.761,281.1263581903395
824.88,282.5241866182374
824.998,290.10816223228244
825.117,286.8808824350723
825.235,291.16875415301365
825.354,289.68086829519757
825.472,298.00770105210006
825.591,303.5882134626822
825.709,302.56699427153274
825.828,291.5838703184784
825.946,279.0804000450776
826.064,271.3691375638846
826.183,267.7020309268471
826.301,262.6435822984677
826.42,269.43448431943887
826.538,276.0963820114056
826.657,276.6976736427662
826.775,275.0894414646028
826.894,263.0110794163096
827.012,257.5647520000508
827.13,245.93054579591328
827.249,237.02188071731712
827.367,230.27338879889425
827.486,220.30931246488691
827.604,214.215982341931
827.723,223.9609895682417
827.841,233.9288849621443
827.959,278.6111855682528
828.078,322.01048878916447
828.196,356.9891322872171
828.315,372.94884766414225
828.433,361.5078167381217
828.552,338.50673214984806
828.67,303.83753437887435
828.788,246.88365171230765
828.907,218.27771438388032
829.025,173.84923788914662
829.143,130.8516715048782
829.262,91.42469356307262
829.38,58.25516735967671
829.499,47.9344679138003
829.617,42.112757102767375
829.735,38.28854502027679
829.854,47.27724875938283
829.972,59.27390836878959
830.091,78.655730923372
830.209,97.25066070439095
830.327,119.79181781556736
830.446,150.90883297518093
830.564,174.37492604466047
830.682,196.1989470081012
830.801,205.7506328074478
830.919,210.49539219986784
831.037,200.94837670051282
831.156,186.72517072496726
831.274,172.43876128621815
831.392,156.10126959638671
831.511,152.24343158620897
831.629,157.27477106520868
831.747,162.60914084723862
831.866,170.85693054268825
831.984,167.8112137446314
832.102,171.46939305047056
832.221,162.88774551648282
832.339,152.67319754959465
832.457,154.82574914980611
832.576,148.6039161906673
832.694,139.50238000846917
832.812,137.2522209640132
832.93,128.45962801396607
833.049,124.84820033497385
833.167,109.34310821248644
833.285,104.54212995161862
833.404,100.50176202367822
833.522,99.46547589054806
833.64,104.64111959530098
833.759,125.69080064054184
833.877,157.28882033130736
833.995,190.04590256812503
834.113,219.94878447298035
834.232,248.3140255485814
834.35,266.40650708884357
834.468,283.0634907936079
834.586,287.3213402992381
834.705,283.8519170775956
834.823,265.98942026287926
834.941,241.20138232262173
835.059,216.52849589751563
835.178,195.440890857691
835.296,182.4935455581262
835.414,180.7003128126739
835.532,191.86985062999224
835.651,211.87748368540582
835.769,222.51368816939066
835.887,236.52738183086467
836.005,264.4570928083559
836.124,292.1755483745919
836.242,314.67755372437756
836.36,329.80553310013727
836.478,352.2512613936459
836.596,379.5723143624791
836.715,394.0033240412691
836.833,404.65424713997254
836.951,431.45149058499635
837.069,448.33531411660033
837.188,463.04857487764156
837.306,468.80252827937557
837.424,477.093278217906
837.542,483.72775110015937
837.66,483.8228300430185
837.779,488.70665357462224
837.897,495.33506585081466
838.015,496.52451708804585
838.133,506.80920642051524
838.251,506.0055840646731
838.369,510.3552084620777
838.487,507.5689021235515
838.606,505.648396650826
838.724,509.6066790568883
838.842,512.2818445798334
838.96,504.51025685602514
839.078,504.420054413602
839.196,498.67011171143866
839.315,512.4812079703142
839.433,512.0888410257267
839.551,511.5302403149055
839.669,520.6755357079807
839.787,529.7195323997571
839.905,517.5401524681573
840.023,517.0473526231376
840.142,518.2056350292002
840.26,517.1751728465181
840.378,505.6841046032299
840.496,488.66316623007174
840.614,488.9106261253118
840.732,483.2749691374352
840.85,476.1276238378705
840.968,479.704953862981
841.087,485.149816355624
841.205,491.0544191080073
841.323,499.2213595227284
841.441,511.5891657383154
841.559,529.4513442482747
841.677,548.5975054422167
841.795,568.7055713980637
841.913,589.5530312933045
842.031,614.0636946517486
842.149,633.5925398283746
842.267,644.9378352214505
842.385,664.5844293158252
842.504,667.2959584751352
842.622,670.0810807080379
842.74,667.3778912526291
842.858,666.6911520136703
842.976,667.7715123418112
843.094,662.9592319773114
843.212,667.1460858119458
843.33,679.5736322872729
843.448,682.0583216197429
843.566,681.7230975322991
843.684,684.6467479037301
843.802,691.7729956777587
843.92,689.9269490794928
844.038,691.4921578924825
844.156,708.7032541513597
844.274,721.2615365574228
844.392,729.223282166949
844.51,727.0135992050468
844.628,726.535517974746
844.746,722.3336272206359
844.864,685.5646368994262
844.982,653.0597158422859
845.1,617.856093486444
845.218,581.0282287063596
845.336,537.5787189046305
845.454,499.1941441678364
845.572,467.66757808905083
845.69,437.7228301920835
845.808,401.42050653754046
845.926,376.12857249338686
846.044,351.17256918516387
846.162,336.97587323624805
846.28,308.36878767694265
846.398,285.7279358838709
846.516,265.6108936146087
846.634,238.47740112889645
846.752,214.2408783401541
846.87,195.66409581115192
846.988,184.447486442323
847.106,162.15587412123975
847.224,138.66808772215003
847.342,124.6688813265358
847.46,115.08010305428193
847.578,112.83039203337327
847.696,111.34262428734029
847.814,125.75382615517242
847.932,139.6233993995437
848.05,133.91667099036198
848.168,142.97704214827974
848.285,157.22875529753938
848.403,166.66661563294605
848.521,188.46205172592838
848.639,195.87307223449523
848.757,215.57759923656846
848.875,235.11762407413948
848.993,256.494012548074
849.111,269.0712668228743
849.229,278.5108587600121
849.347,287.54698749368663
849.465,292.2766227208675
849.582,285.29803283982335
849.7,292.99909663843283
849.818,306.43695697383873
849.936,321.1683238027511
850.054,323.6399503719232
850.172,337.5843042138223
850.29,347.7295238565872
850.408,347.9691157937244
850.525,343.0615215836756
850.643,349.4786026983021
850.761,351.4627833800281
850.879,351.47034068513085
850.997,362.17746508980065
851.115,369.94173235161327
851.233,376.24712515455144
851.35,386.616587221559
851.468,394.61115751367464
851.586,422.2057278057903
851.704,458.5829820805897
851.822,501.7498467449995
851.94,560.5643304570281
852.057,622.2099830002255
852.175,689.1681896559769
852.293,758.2779114632435
852.411,816.0343865172631
852.529,878.0506018310232
852.647,932.5767738547395
852.764,970.3955865710966
852.882,1006.5382088112631
853.0,1033.8782336488323
853.118,1040.2693407374838
853.236,1038.4587162244036
853.353,1016.1693038325357
853.471,991.804566765343
853.589,955.1463232046437
853.707,902.7893783452432
853.824,866.2705287239381
853.942,827.6495146004686
854.06,781.5540416025401
854.178,735.6888716349147
854.296,691.8849570785451
854.413,650.7355879767206
854.531,594.9511539398313
854.649,533.8017848380066
854.767,481.33683132059775
854.884,431.092224123535
855.002,370.36839614725153
855.12,314.58093180733147
855.238,268.5116492855933
855.355,224.93760485909297
855.473,192.2559846750168
855.591,157.06700518358122
855.708,131.87369668781673
855.826,112.79685891603391
855.944,74.57664644637939
856.062,52.536632864857054
856.179,28.305214326202183
856.297,8.70317144418715
856.415,5.291700560720789
856.532,-7.2760840646870975
856.65,-14.050312182678404
856.768,-10.524797833891318
856.886,-22.143520763982394
857.003,-21.72495781944245
857.121,-27.672295290788647
857.239,-26.109759314720524
857.356,-25.27487713541838
857.474,-29.82840827959307
857.592,-36.92893569715932
857.709,-25.713329760315602
857.827,-24.803818137153215
857.945,-23.764012234281793
858.062,-14.827632793256011
858.18,-0.13838280703431594
858.298,3.9283043061349723
858.415,5.133996917341932
858.533,3.7621317250853625
858.651,9.347304734929816
858.768,5.636971922027063
858.886,3.518436350984957
859.003,3.916822705412573
859.121,-4.048837609673921
859.239,-16.65456298252578
859.356,-23.135067187575345
859.474,-25.593636305497267
859.592,-17.534868766908232
859.709,-18.351002259921653
859.827,-16.73805875815938
859.944,-18.79405528025358
860.062,-24.46732568996805
860.18,-21.33041639459175
860.297,-14.00967073436007
860.415,-9.901454707081037
860.532,0.5005777827923679
860.65,4.992005313179485
860.768,16.21756378796981
860.885,25.965626266997283
861.003,35.863061871839044
861.12,48.26564338825626
861.238,58.123862173011375
861.356,61.560702013414826
861.473,71.73087518715157
861.591,73.74347260331263
861.708,75.11277997618387
861.826,71.51152457849241
861.943,63.53970641023828
862.061,52.33416267158891
862.178,42.00051510505371
862.296,31.540838631663696
862.414,36.78335468070801
862.531,41.201478808782106
862.649,44.50343108939785
862.766,53.91881619956369
862.884,56.90251952368068
863.001,62.509598928434215
863.119,52.553734934597486
863.236,47.93251510523977
863.354,52.218842980826096
863.471,53.86953427870917
863.589,64.39155065936296
863.706,78.33074431512733
863.824,96.52467182302172
863.941,117.5233733655246
864.059,118.86036840156932
864.176,126.99996084021137
864.294,118.61747535677564
864.411,102.98131021966037
864.529,98.1191710565713
864.646,96.42932626577678
864.764,105.79229532779614
864.881,119.26781850236961
864.999,132.05676159036312
865.116,150.61193844459038
865.233,165.0303187620213
865.351,183.44783327858636
865.468,206.99954692935057
865.586,230.42485365370786
865.703,243.38609111399575
865.821,245.66334589030077
865.938,238.0843236103288
866.056,230.63257405762948
866.173,221.2119933360991
866.29,222.02864205179816
866.408,234.13446825667472
866.525,240.4662684875255
866.643,244.7625708828785
866.76,241.06839708775533
866.878,235.6149159333248
866.995,226.6765862940458
867.112,217.91401423052432
867.23,220.42936424492478
867.347,232.62869694330774
867.465,235.913743927405
867.582,252.50182121453247
867.699,265.620634432396
867.817,274.81304072385274
867.934,278.4071786170413
868.051,291.7943901033035
868.169,309.16861457657876
868.286,328.91946242647725
868.404,345.6166306226961
868.521,371.00903691415317
868.638,398.0101012142683
868.756,424.89081919403725
868.873,451.50487050713946
868.99,488.82541532673525
869.108,537.8801592805302
869.225,580.8777603771822
869.342,616.9853181837912
869.46,663.3482872458114
869.577,707.2601740567496
869.694,742.8716279672551
869.812,753.83373122841
869.929,766.2339297276599
870.046,774.3735221663038
870.164,762.1754522672854
870.281,736.5098499007345
870.398,732.2693557592916
870.516,714.233190622178
870.633,698.411744099783
870.75,663.5677867548773
870.867,618.8091884164853
870.985,565.8154624532199
871.102,631.3825981250175
871.219,745.7312791358879
871.337,887.7260787416209
871.454,992.0556987548237
871.571,1000.2227690914301
871.688,897.7848655090161
871.806,706.1731568387504
871.923,492.22314433536246
872.04,383.1791241540485
872.157,311.0226298080654
872.275,296.7824791251136
872.392,295.09957007338744
872.509,273.7456560185258
872.626,251.22550819743046
872.744,239.55124782222248
872.861,218.60599177601898
872.978,194.8590041280839
873.095,174.84794721607977
873.213,158.49922796641354
873.33,129.4318939981328
873.447,103.68750375279603
873.564,84.06345982780574
873.681,76.20997867337817
873.799,50.20507255388603
873.916,34.994622904610026
874.033,30.890746644381004
874.15,21.326495906267123
874.267,10.252542351970193
874.385,3.670812493055079
874.502,4.914282891462015
874.619,1.4872274169394424
874.736,-8.650768694796545
874.853,-14.903345848458809
874.97,-19.9275367479855
875.088,-19.57252566385406
875.205,-14.384878529851314
875.322,-3.1180118941277604
875.439,4.54177132468484
875.556,3.31030920979435
875.673,2.105716390152759
875.791,-10.674593298195532
875.908,-14.994483431152537
876.025,-12.723894980212004
876.142,-14.869210680951669
876.259,-6.342940393430504
876.376,-5.65344838476967
876.493,-8.57308414009425
876.61,-6.474013842837924
876.728,-5.576530041459712
876.845,5.668498710726697
876.962,6.947999034358819
877.079,3.850961086457252
877.196,7.770748621594224
877.313,-2.5921515861932893
877.43,-11.711300193155829
877.547,-11.25377697763436
877.664,-15.43420946926119
877.781,-22.770090664292056
877.898,-19.22191289554045
878.016,-20.329049112569983
878.133,-19.04932959714873
878.25,-23.264842340886144
878.367,-20.9679356015801
878.484,-18.956051791546432
878.601,-19.290253323766006
878.718,-25.83572349640032
878.835,-19.610107957381675
878.952,-24.97169333446572
879.069,-20.739540585252588
879.186,-21.842836283111453
879.303,-18.682620477729415
879.42,-17.405595715295185
879.537,-13.055541278501327
879.654,-13.925231882220043
879.771,-16.767935334357936
879.888,-29.074767523186047
880.005,-32.45150879525722
880.122,-34.47696782503898
880.239,-35.15114461253136
880.356,-34.47403915773433
