wavelength_nm,intensity
792.446,0.28946497779175623
792.565,0.25404953770109817
792.684,0.2238561476359366
792.803,0.19888480759627136
792.922,0.1791355175821023
793.041,0.15717257627963677
793.16,0.1528131244117849
793.279,0.15982348769093468
793.398,0.16717398113793613
793.518,0.18507026303662827
793.637,0.20297443455261593
793.756,0.22945724994127573
793.875,0.24447557477538756
793.994,0.24493755569924797
794.113,0.24298443710653253
794.232,0.23146647247920374
794.351,0.2177359085125511
794.47,0.20541670941765416
794.589,0.18961205272642126
794.708,0.1845872431333131
794.827,0.1809071749770207
794.946,0.18314344316823128
795.066,0.18575490649305146
795.185,0.1885714998675553
795.304,0.19267147098879867
795.423,0.18914393543355307
795.542,0.18318902762371647
795.661,0.17373814272781646
795.78,0.16288641244988794
795.899,0.16134092408410816
796.018,0.15525802914925513
796.137,0.14831779580162124
796.256,0.14817139956958192
796.375,0.14452464313075947
796.494,0.13643427890626628
796.613,0.13170401502552456
796.732,0.12646267926886123
796.851,0.12595423726537155
796.97,0.1269641082791993
797.089,0.12363556640462992
797.208,0.13613359682489215
797.327,0.14146873136495777
797.446,0.14754811980323498
797.565,0.16312660746532942
797.684,0.1735496685368675
797.803,0.17803798415387972
797.922,0.1791758422927239
798.041,0.1679997610815348
798.16,0.16240251592242885
798.279,0.15094942148175222
798.398,0.14314746660061767
798.517,0.1386915860769315
798.636,0.13883885893311468
798.755,0.13837950788168607
798.874,0.14657506700345307
798.993,0.14709315187252625
799.112,0.14663204757280976
799.231,0.14881396506709554
799.35,0.14560990382096675
799.469,0.1381892804424495
799.588,0.13974616492210049
799.707,0.1353928494232563
799.826,0.13519823886329993
799.945,0.13549892094467403
800.064,0.1363115515261136
800.183,0.14437035728142472
800.302,0.1482424061252417
800.421,0.16106654072705245
800.54,0.17169823834485007
800.659,0.1787261341068787
800.778,0.17954665430561373
800.897,0.18697516730142658
801.016,0.1850851656470754
801.135,0.18586097801446916
801.254,0.18423396360330221
801.373,0.1934350106181772
801.492,0.19257328908467664
801.611,0.20330579847902824
801.729,0.20953421302177658
801.848,0.22215935394291125
801.967,0.2131073330325074
802.086,0.19520579138895158
802.205,0.17024128901760904
802.324,0.14622151664626828
802.443,0.11330812172620047
802.562,0.09772426092559852
802.681,0.08245453374267958
802.8,0.07960572248640463
802.919,0.0721141940434197
803.038,0.06695652381308806
803.157,0.05726065036187076
803.276,0.05295892301522111
803.394,0.04634476941327744
803.513,0.04891326589180851
803.632,0.04617127981568078
803.751,0.04675613086327331
803.87,0.04885902294369844
803.989,0.04797521666985692
804.108,0.042244523982023954
804.227,0.04240450830874071
804.346,0.04228654167513879
804.465,0.045457487958430146
804.583,0.04847175621019441
804.702,0.052186942953303075
804.821,0.05404687465518454
804.94,0.053535233699445205
805.059,0.05595760722499413
805.178,0.06236492940100159
805.297,0.061642686346169165
805.416,0.06892301756833302
805.535,0.07273129130460487
805.653,0.08444455300738593
805.772,0.08713419643254319
805.891,0.09567480733320083
806.01,0.11387655676065653
806.129,0.1406765237962609
806.248,0.16971652366462794
806.367,0.20035838878199108
806.485,0.22606006744120388
806.604,0.24852437313681786
806.723,0.25059840124420835
806.842,0.2538672680597994
806.961,0.2510488568198177
807.08,0.24441274743294356
807.198,0.24232894722558979
807.317,0.22960292991071093
807.436,0.22300714523445836
807.555,0.2169864259966354
807.674,0.2147956776437199
807.793,0.21986600707512305
807.912,0.23770173729069244
808.03,0.26687397093579324
808.149,0.30179685896519093
808.268,0.3325776979144358
808.387,0.3525997287450105
808.506,0.35835294838454856
808.624,0.3511373904385243
808.743,0.3357587084640588
808.862,0.3186381743155692
808.981,0.303854720134844
809.1,0.28845499918092354
809.219,0.27584031313232504
809.337,0.2598795527262782
809.456,0.24680113250553137
809.575,0.24705441226594116
809.694,0.25149970868270866
809.812,0.2508491889507082
809.931,0.2642974153258184
810.05,0.2794226236883007
810.169,0.2911132186547957
810.288,0.29825851743492204
810.406,0.29958303189923546
810.525,0.3076128444406049
810.644,0.30351631519874556
810.763,0.3103302500524593
810.882,0.32364522955768915
811.0,0.33840576227628905
811.119,0.3455834961497417
811.238,0.3548879201964115
811.357,0.3561326618636263
811.475,0.3630009474142655
811.594,0.3655062746004768
811.713,0.38278184198806287
811.832,0.3912298042460956
811.95,0.39818312233869774
812.069,0.3894922059584095
812.188,0.3862328527740211
812.307,0.38081963406795327
812.425,0.38087129027525535
812.544,0.38051794612805356
812.663,0.3885100638312337
812.782,0.3921216906871072
812.9,0.3895040263760887
813.019,0.391615749321668
813.138,0.40422241651858914
813.257,0.4239674341196766
813.375,0.44277797038331584
813.494,0.4471364810098334
813.613,0.4578882115181614
813.731,0.4568440875455293
813.85,0.4492594708349035
813.969,0.4551845088066554
814.088,0.45776960878996664
814.206,0.46021357228610216
814.325,0.4666882535961092
814.444,0.47082760818663966
814.562,0.4807579418720884
814.681,0.4806763512095106
814.8,0.4867179801924073
814.918,0.4864452854664488
815.037,0.4758626141835214
815.156,0.4679992309951194
815.274,0.46466624138263923
815.393,0.461536628571555
815.512,0.4584920483024336
815.631,0.45254847198927756
815.749,0.4628680267946391
815.868,0.4657836140802188
815.987,0.4618913382639005
816.105,0.45252016154790925
816.224,0.4430429133105003
816.343,0.42641591855505384
816.461,0.4081408704089855
816.58,0.3881046843577261
816.698,0.37526470590413324
816.817,0.3673846668569967
816.936,0.34834257258497403
817.055,0.3319321039930825
817.173,0.31652799991844294
817.292,0.29872282231353053
817.41,0.29039833482541244
817.529,0.28505612267500446
817.648,0.2819484254675195
817.766,0.29018336805857403
817.885,0.2941158393511334
818.004,0.3009043521046746
818.122,0.30254971100567474
818.241,0.31255894086407976
818.359,0.32430614896953
818.478,0.32954222160254015
818.597,0.31333772597826337
818.715,0.32293720000388015
818.834,0.329238821950596
818.953,0.4353840616284628
819.071,0.5573650630333237
819.19,0.684617325302634
819.308,0.7759544639312669
819.427,0.809963584344155
819.546,0.7564880738284017
819.664,0.6662835348894642
819.783,0.5347909791391612
819.901,0.47284833332347387
820.02,0.39386587228252967
820.138,0.33821318918581117
820.257,0.30443065993330887
820.376,0.28233353051962917
820.494,0.2624586433108567
820.613,0.25706471033595635
820.731,0.2582638675476866
820.85,0.2750993696150118
820.969,0.29352156138288243
821.087,0.31805207018578063
821.206,0.3462118029446224
821.324,0.35818730075790184
821.443,0.3562314876755647
821.561,0.3474537855050266
821.68,0.32906652946853415
821.798,0.30792930349247766
821.917,0.27933463592385827
822.035,0.26100699032915436
822.154,0.2471220758959775
822.273,0.23865820516897324
822.391,0.23702060665088953
822.51,0.23938655059821498
822.628,0.23954252507864826
822.747,0.24136233218429415
822.865,0.2401639223623281
822.984,0.24265697681052584
823.102,0.23973600054570274
823.221,0.24196431450242833
823.339,0.25021591295221857
823.458,0.260459201457058
823.576,0.2613708259495741
823.695,0.2755843452023525
823.813,0.2784105168252501
823.932,0.27826493260016505
824.05,0.2627977115871619
824.169,0.2509833833819886
824.287,0.24798701744078516
824.406,0.24668604259397653
824.524,0.2450878921623697
824.643,0.25562747962786264
824.761,0.24950945511006153
824.88,0.25760063134150857
824.998,0.248155818197426
825.117,0.2523600429746089
825.235,0.2560768647277569
825.354,0.2516621209216463
825.472,0.2475094877345762
825.591,0.24064019632541217
825.709,0.2326461961395632
825.828,0.2424581855655798
825.946,0.2394004559343003
826.064,0.24957712100419904
826.183,0.2510287459693863
826.301,0.24847156872430065
826.42,0.24778247752996763
826.538,0.23907052217022523
826.657,0.23791945005203174
826.775,0.23933601005146116
826.894,0.23057759361208974
827.012,0.22404843237077743
827.13,0.2162490427448848
827.249,0.20847507521916656
827.367,0.20071688692803924
827.486,0.18810483075187354
827.604,0.1846683994904083
827.723,0.18962739765553005
827.841,0.20057549197210245
827.959,0.2172382990830699
828.078,0.2384016945490648
828.196,0.2554782682559756
828.315,0.2659319465553615
828.433,0.26641490184148653
828.552,0.2665603568321917
828.67,0.25566122423329973
828.788,0.23212313706528306
828.907,0.20276464004345937
829.025,0.16818923399351132
829.143,0.13646842555906694
829.262,0.10310663282490598
829.38,0.08239007205209513
829.499,0.07190009527152354
829.617,0.06149030727244764
829.735,0.059273882329375464
829.854,0.06689900909127885
829.972,0.08108569596543358
830.091,0.10653550553697601
830.209,0.12421113173379922
830.327,0.1473750338619712
830.446,0.1704580050735977
830.564,0.18767391217286927
830.682,0.20472200145377079
830.801,0.2140601813886523
830.919,0.2046388000002214
831.037,0.18487235316031322
831.156,0.1492159642988281
831.274,0.12844553989515975
831.392,0.11972244852233568
831.511,0.12755816709369316
831.629,0.13833520011903966
831.747,0.15317347210953947
831.866,0.15771747645655676
831.984,0.1639213288254766
832.102,0.16733138004763515
832.221,0.16513629649339207
832.339,0.16331816132104654
832.457,0.16165672099906514
832.576,0.1464973588252565
832.694,0.133156487139519
832.812,0.12036419323486058
832.93,0.11779719292565612
833.049,0.11417460440804192
833.167,0.10825230706086927
833.285,0.1076562776905306
833.404,0.1052983323635337
833.522,0.11038143347384342
833.64,0.11667751452606118
833.759,0.1318338069808474
833.877,0.15521550847779209
833.995,0.18287734687422266
834.113,0.21301830526083576
834.232,0.2293275834324806
834.35,0.24152724761729852
834.468,0.24901681027668532
834.586,0.24398204379149124
834.705,0.23836695212300368
834.823,0.23191117790047022
834.941,0.2201614704726365
835.059,0.2097074135295573
835.178,0.191278706748986
835.296,0.18579773857452206
835.414,0.177908683876634
835.532,0.17972385845224703
835.651,0.19795206687499275
835.769,0.211529784214096
835.887,0.22506717684257765
836.005,0.2522387047818777
836.124,0.27410928652272604
836.242,0.2955231470845776
836.36,0.30645345950895875
836.478,0.32627712387368935
836.596,0.3418614338782887
836.715,0.3452510254164316
836.833,0.3498626310112376
836.951,0.3614530414160111
837.069,0.3703934170336306
837.188,0.38095028757268984
837.306,0.3882277071892407
837.424,0.39537626305663126
837.542,0.3965278331552756
837.66,0.39770482535409446
837.779,0.4052005243824883
837.897,0.40591290578501493
838.015,0.40987054976843595
838.133,0.4166009559191636
838.251,0.4123621641566735
838.369,0.4150767551039768
838.487,0.4088690655141805
838.606,0.4121429426653226
838.724,0.4142868512949162
838.842,0.40391607364551263
838.96,0.39538007032939154
839.078,0.3931005335286251
839.196,0.38929742396567757
839.315,0.4012156918002881
839.433,0.4054687581202201
839.551,0.4203719311649726
839.669,0.412620506457685
839.787,0.41120532106285146
839.905,0.4029121426346042
840.023,0.40471767434463446
840.142,0.4046340810244572
840.26,0.4076765294015972
840.378,0.40918313227854075
840.496,0.4042588204354839
840.614,0.39343395147951493
840.732,0.3921835714237427
840.85,0.3851106538038699
840.968,0.38538647638271073
841.087,0.3927050973340273
841.205,0.3985518663476557
841.323,0.403580745034981
841.441,0.4065802388290676
841.559,0.4250828306088692
841.677,0.4409441538429565
841.795,0.4474334883540988
841.913,0.45938682115446716
842.031,0.47797181560379975
842.149,0.48035416600054703
842.267,0.48698726687129695
842.385,0.49813936520409724
842.504,0.5134641944620887
842.622,0.5233618436449001
842.74,0.520701851965661
842.858,0.5322905091221476
842.976,0.5404690983586777
843.094,0.5351818641200276
843.212,0.5352841151183678
843.33,0.532221752957057
843.448,0.5283160783692684
843.566,0.5264985224923634
843.684,0.5270478518041173
843.802,0.5396121916328182
843.92,0.5446708755410388
844.038,0.5557160257282783
844.156,0.5558656144303918
844.274,0.5550851049157768
844.392,0.555754531735251
844.51,0.5587847073743766
844.628,0.5588694258898379
844.746,0.5521629371621362
844.864,0.5345451077147176
844.982,0.5148496790461431
845.1,0.48047254921473265
845.218,0.44572373074628857
845.336,0.40862029982720105
845.454,0.3840184058249517
845.572,0.3617562216628988
845.69,0.34419361953654937
845.808,0.3294835523746058
845.926,0.31752520840051396
846.044,0.30464377920284497
846.162,0.29169572657023596
846.28,0.2642062326378228
846.398,0.24769557948421062
846.516,0.23073434152060937
846.634,0.2179510942270629
846.752,0.19876586081026654
846.87,0.180187251301082
846.988,0.17086140963126523
847.106,0.16224212702147034
847.224,0.14776787175424883
847.342,0.141760753828037
847.46,0.13603839878703156
847.578,0.12806019224736775
847.696,0.1149078817125089
847.814,0.11429582661616414
847.932,0.1259548281572483
848.05,0.13924911648664395
848.168,0.15141276277374488
848.285,0.16286061666048018
848.403,0.1732798648054853
848.521,0.17648854427802185
848.639,0.17841472262796287
848.757,0.1871145757381878
848.875,0.20143621948354917
848.993,0.21712802676590082
849.111,0.22748294625989873
849.229,0.2402643613843441
849.347,0.255266265465409
849.465,0.26229088983655
849.582,0.2641793733483017
849.7,0.26804113780807964
849.818,0.2728961174229503
849.936,0.27773619442737385
850.054,0.28214409572883115
850.172,0.29013563653074675
850.29,0.3027645190541457
850.408,0.30601790635802417
850.525,0.31015142430242626
850.643,0.3133224089367739
850.761,0.3159411203604343
850.879,0.3179584676213467
850.997,0.31746691658228077
851.115,0.31310506994768555
851.233,0.3104824456146825
851.35,0.31606677651731774
851.468,0.3309205311180557
851.586,0.3475801314553259
851.704,0.37581380036513723
851.822,0.41157767067145923
851.94,0.45288355881581843
852.057,0.500450296596252
852.175,0.5492635939093791
852.293,0.6093178426203474
852.411,0.6569345479769857
852.529,0.6904481241057934
852.647,0.7201422488394208
852.764,0.7473827025941385
852.882,0.7682983131502735
853.0,0.7868785969869319
853.118,0.8005392661277553
853.236,0.8028178473835621
853.353,0.7874482313734135
853.471,0.7670134810595348
853.589,0.7404572643484695
853.707,0.7095512386351355
853.824,0.676057418448868
853.942,0.6518970155232116
854.06,0.6266206700623098
854.178,0.5985496468305029
854.296,0.564926962895075
854.413,0.5373100309698329
854.531,0.4945441572130306
854.649,0.45501653304397127
854.767,0.4155704349202989
854.884,0.3789944042439112
855.002,0.32822845854944216
855.12,0.2818316075884084
855.238,0.23148994797961017
855.355,0.1957388206226773
855.473,0.15572817655030255
855.591,0.13303515213166664
855.708,0.11078744782835694
855.826,0.09890034566518091
855.944,0.08143903096451283
856.062,0.06940568865372594
856.179,0.06009114142011693
856.297,0.05121644364706841
856.415,0.04689492367971697
856.532,0.04384275562622553
856.65,0.04142932186839031
856.768,0.047489178568579545
856.886,0.040119501463306374
857.003,0.03391616128774151
857.121,0.03208001675602036
857.239,0.032023296331401316
857.356,0.031008161102879794
857.474,0.029915742408537508
857.592,0.02868195842239984
857.709,0.032935265631094925
857.827,0.03474792343076037
857.945,0.0318100260263241
858.062,0.03658346071849333
858.18,0.042188536878271225
858.298,0.03883938691186844
858.415,0.03660795035722847
858.533,0.03252467062987917
858.651,0.04099373732020833
858.768,0.05189131161541507
858.886,0.048746384019727584
859.003,0.05174735158617954
859.121,0.04484527291936881
859.239,0.04503920060433124
859.356,0.041040208860842475
859.474,0.03779825725377252
859.592,0.04380901917305991
859.709,0.047343785161053545
859.827,0.042687624800535104
859.944,0.0462008480578143
860.062,0.04412202038484279
860.18,0.0494757547481372
860.297,0.04927126907547397
860.415,0.05330811961275393
860.532,0.05749031392808496
860.65,0.059820242436786845
860.768,0.06733777560721538
860.885,0.08122045195940185
861.003,0.1029225717393856
861.12,0.11436929269721482
861.238,0.1277987800853212
861.356,0.13233029600577773
861.473,0.1283349632005863
861.591,0.11906761279369346
861.708,0.11366179174089
861.826,0.11051853760361549
861.943,0.10994554545639552
862.061,0.09942111602708124
862.178,0.0988270849004065
862.296,0.0893289893850844
862.414,0.08830827018883182
862.531,0.08245741695891942
862.649,0.08826573043068317
862.766,0.0891877782790105
862.884,0.09379075121053432
863.001,0.10155998498066561
863.119,0.10785626992761758
863.236,0.11204916977995244
863.354,0.11392021307508327
863.471,0.11433689402730654
863.589,0.12129319109337966
863.706,0.12581860940828576
863.824,0.1416025116039121
863.941,0.15206004550091218
864.059,0.1519639013289259
864.176,0.1436274902038312
864.294,0.1325174402872858
864.411,0.12647427792275806
864.529,0.11241175788939672
864.646,0.11688457875566538
864.764,0.13211445449231626
864.881,0.14200042944746216
864.999,0.15375186058092877
865.116,0.16328280275777596
865.233,0.1762983259068152
865.351,0.19530031533487327
865.468,0.20579466744591887
865.586,0.2250482480032897
865.703,0.23612730841834806
865.821,0.23822798435109407
865.938,0.24262892203755865
866.056,0.23485530361287768
866.173,0.22570012553733515
866.29,0.2270881060410516
866.408,0.2307149846084106
866.525,0.23284371251376296
866.643,0.23078743675590907
866.76,0.2307798316224609
866.878,0.2414310994552727
866.995,0.24078268207259856
867.112,0.2449443013677653
867.23,0.2451111444389622
867.347,0.2466323718125582
867.465,0.24421843340397306
867.582,0.2451865109427382
867.699,0.2442409179752655
867.817,0.25782449356958187
867.934,0.27113982217585036
868.051,0.29105174746532525
868.169,0.2947224572398812
868.286,0.3033294375690066
868.404,0.3104444036051329
868.521,0.31984823528110684
868.638,0.32884618997843296
868.756,0.3522768845817139
868.873,0.37838391269646726
868.99,0.4131221821325296
869.108,0.4389863853594094
869.225,0.4786206006394196
869.342,0.5068508124308141
869.46,0.5411630425329177
869.577,0.5770917675564609
869.694,0.6024598015178662
869.812,0.6147038954202304
869.929,0.6237149994797158
870.046,0.6232129783290803
870.164,0.6201924160128832
870.281,0.6026041136725635
870.398,0.5934305264899975
870.516,0.5847276864727314
870.633,0.5670596113353125
870.75,0.5433533490943816
870.867,0.5170961105945631
870.985,0.4985733269167949
871.102,0.48100781680421745
871.219,0.4663202637562205
871.337,0.4518501134959227
871.454,0.44252925345717364
871.571,0.4289190714820885
871.688,0.4062577452207433
871.806,0.37374754670214555
871.923,0.3501000182788589
872.04,0.32209479123600826
872.157,0.3071100626032125
872.275,0.28462230792236853
872.392,0.26198815700948525
872.509,0.2504275222829491
872.626,0.24087873996677273
872.744,0.22381290561624484
872.861,0.21181395881773474
872.978,0.19598591775846103
873.095,0.19059759362946035
873.213,0.1743478963569478
873.33,0.15259299946044386
873.447,0.13724885492862932
873.564,0.1284408200140888
873.681,0.11173352493843569
873.799,0.10395815326546579
873.916,0.09070043722422172
874.033,0.09023525529695642
874.15,0.08585298044563437
874.267,0.0767926340233805
874.385,0.06984009909731839
874.502,0.06514690469642287
874.619,0.05599588199960556
874.736,0.05330498543169494
874.853,0.04515046442433806
874.97,0.0530635101113609
875.088,0.056497666950184884
875.205,0.062024677491872016
875.322,0.0690556807469123
875.439,0.06452653360709293
875.556,0.060419480759961924
875.673,0.05195456465793015
875.791,0.04532572097684842
875.908,0.05214862790354266
876.025,0.049150250565656764
876.142,0.055836059372071166
876.259,0.06217836562929301
876.376,0.058354203876489125
876.493,0.059759638356329345
876.61,0.05853579523797528
876.728,0.055372488311951844
876.845,0.06686227480634441
876.962,0.061554543497441515
877.079,0.06931817596955411
877.196,0.07004458637708168
877.313,0.06490214407367156
877.43,0.060804707086572915
877.547,0.05490877473293358
877.664,0.05274046875854106
877.781,0.05590598406584342
877.898,0.051305216452014586
878.016,0.05008096474951426
878.133,0.05327667499446552
878.25,0.05535687615793323
