wavelength_nm,intensity
792.446,241.9483007015423
792.565,200.14708858033015
792.684,165.99479420803573
792.803,139.49141758465908
792.922,120.63695871020002
793.041,102.1555734288148
793.16,93.96336563660702
793.279,108.69756477080612
793.398,130.00925308249444
793.518,153.02916650240783
793.637,184.75643922968055
793.756,213.15124442448567
793.875,218.84648251972374
793.994,211.9694262426675
794.113,194.92353879678012
794.232,169.48544355868492
794.351,151.03522710846843
794.47,136.73912321236452
794.589,138.7373916106329
794.708,135.54518381842507
794.827,132.7356600089013
794.946,128.0378245110659
795.066,131.42397169721312
795.185,135.23782451106598
795.304,142.28024875349013
795.423,141.93652580976715
795.542,142.172023645265
795.661,131.533062606304
795.78,121.09496736820876
795.899,109.37895005219148
796.018,104.78068165392301
796.137,102.05860373184512
796.256,91.0880409612823
796.375,90.01791109115246
796.494,83.7061891255695
796.613,74.55148815291486
796.732,67.9598676147969
796.851,65.67556923678644
796.97,72.58015122755145
797.089,76.9002804866492
797.208,88.65102264781598
797.327,109.20640484953023
797.446,118.62928586488233
797.565,123.324028352096
797.684,125.41357603411502
797.803,123.00701982003014
797.922,118.68617789165951
798.041,104.78005457800745
798.16,104.35531654574078
798.279,102.58945297234845
798.398,98.83830801367468
798.517,96.26378643162431
798.636,91.6529012132104
798.755,95.04374759652802
798.874,98.45450739975908
798.993,103.6063927441157
799.112,115.64226077245493
799.231,116.726613649279
799.35,110.72438643952293
799.469,104.91003801764566
799.588,95.51820041827929
799.707,88.52809442064458
799.826,77.54837803339953
799.945,73.40935428684716
800.064,78.48245175241587
800.183,88.46550592794136
800.302,98.51003196493878
800.421,117.25845410583233
800.54,128.79388923373904
800.659,138.11287414519558
800.778,141.8604304852237
800.897,140.65560587287104
801.016,135.6854132951504
801.135,137.24249344470252
801.254,142.05498484966589
801.373,148.2943160814691
801.492,153.8886256682506
801.611,163.99202616412288
801.729,173.16036172493034
801.848,175.77285312989366
801.967,166.92127527078782
802.086,155.2878792298638
802.205,137.2873836218402
802.324,112.137970264899
802.443,86.49969692524603
802.562,61.18432292299844
802.681,37.93807208609067
802.8,21.152902683236704
802.919,8.366248645023369
803.038,-0.6678248883482929
803.157,-9.33294352045762
803.276,-14.429637465122152
803.394,-21.43457731311308
803.513,-23.997524559840024
803.632,-31.934686172422495
803.751,-33.235329889328526
803.87,-28.988977938728105
803.989,-19.07297735403828
804.108,-10.040743325766435
804.227,-8.492469691257007
804.346,-10.278682396545424
804.465,-8.790686089671771
804.583,-10.017601587380717
804.702,-6.741480593763198
804.821,4.649491388447398
804.94,13.093662406687837
805.059,15.870169948071197
805.178,15.146960944643757
805.297,18.443556065591896
805.416,23.68434575118846
805.535,36.89124248887974
805.653,49.64833797180874
805.772,60.59790973079891
805.891,65.4093858868929
806.01,72.01588484219442
806.129,90.47933680049334
806.248,124.64322165922515
806.367,160.8867601976106
806.485,198.68008228577963
806.604,226.6898545903989
806.723,242.77148836687974
806.842,243.7483602385987
806.961,233.8395178246035
807.08,224.6917143716472
807.198,221.92226589704575
807.317,208.12424599387273
807.436,194.88899665347037
807.555,195.55071701003757
807.674,201.82975338392083
807.793,210.90359495260924
807.912,228.5402070840683
808.03,257.89456813327604
808.149,299.29048762404216
808.268,329.0907361191371
808.387,344.35159067483823
808.506,358.4964279145221
808.624,347.5806590935999
808.743,329.15666516445265
808.862,305.400203702838
808.981,279.9658201633014
809.1,268.24831974064796
809.219,256.50830849548373
809.337,237.74751802954034
809.456,231.72352410039338
809.575,218.06922714094318
809.694,222.4867916533543
809.812,226.2965639579731
809.931,238.03360898986443
810.05,255.40442025552198
810.169,272.4436297895778
810.288,280.52526356605784
810.406,290.49088002652064
810.525,285.0781415086286
810.644,287.9389960643297
810.763,293.08902810920836
810.882,307.90572682075356
811.0,319.1726419825153
811.119,330.8075225122423
811.238,346.613831613398
811.357,355.6772835716964
811.475,353.2680082572677
811.594,353.42063770474397
811.713,357.4910160699691
811.832,366.6384507122506
811.95,372.21012777877434
812.069,373.86838493187815
812.188,387.7846507429905
812.307,389.3788386320248
812.425,394.70895725698983
812.544,393.1750066178855
812.663,396.05664039436533
812.782,406.5278845604556
812.9,418.65713738455446
813.019,426.53790536016857
813.138,436.62819714530656
813.257,448.45095646291225
813.375,460.4494733562757
813.494,462.1735313751803
813.613,465.6690179655135
813.731,465.61212360346565
813.85,462.23228551847393
813.969,462.9805859616207
814.088,459.10550978139065
814.206,463.0131175838445
814.325,469.53977300534604
814.444,474.28980505022423
814.562,475.2536899089554
814.681,474.7916007417124
814.8,476.8749661199239
814.918,479.05789859770243
815.037,473.10316873781835
815.156,463.2471401766355
815.274,458.10626313060425
815.393,452.06668478587187
815.512,456.2019982160315
815.631,463.4611211700004
815.749,466.1219757257011
815.868,464.3568562554276
815.987,464.6990960925136
816.105,458.7798640681279
816.224,447.52816451127467
816.343,427.0097982877552
816.461,405.554635527439
816.58,377.7747974424475
816.698,352.41314117563786
816.817,340.08611694346024
816.936,334.0248935770834
817.055,323.43553168256784
817.173,316.38989273177515
817.292,302.8377602744889
817.41,289.53411266568764
817.529,281.19323561965695
817.648,287.70344082470854
817.766,298.89156810768225
817.885,304.6372711482318
818.004,308.54920795501505
818.122,322.38755168820535
818.241,331.85966165516203
818.359,342.7318055078139
818.478,350.5588881821335
818.597,339.7554605018114
818.715,352.2341078733476
818.834,359.94255874018813
818.953,472.6866347094368
819.071,613.4928045757447
819.19,759.981166659775
819.308,871.279477120532
819.427,904.22552800832
819.546,839.1515039846317
819.664,725.1530542733976
819.783,570.4884184017315
819.901,487.8779717832853
820.02,402.15278748485173
820.138,350.5486989604891
820.257,310.09765230555627
820.376,271.6130523158034
820.494,241.8617856593837
820.613,229.53043242287762
820.731,235.44842983572232
820.85,250.77075625289592
820.969,273.1346411116278
821.087,305.3556688275023
821.206,339.1351381018182
821.324,353.62629568782233
821.443,358.07070002707314
821.561,350.7912948425145
821.68,326.52141346747953
821.798,299.41083945175217
821.917,270.0006983364576
822.035,250.04770007830604
822.154,237.84361956907225
822.273,220.95469057499005
822.391,216.37485248999872
822.51,217.9067027166957
822.628,213.4567347615744
822.747,225.57906117874745
822.865,233.242513137046
822.984,250.16570535508498
823.102,249.9313218155483
823.221,248.096072475146
823.339,253.08939456331524
823.458,257.6636690324368
823.576,249.25612531974014
823.695,254.80096255942436
823.813,256.177834431143
823.932,256.6560050041605
824.05,243.35582059882296
824.169,237.17944571729493
824.287,230.02385005654622
824.406,222.41976954731268
824.524,226.3446933670837
824.643,239.47740939464705
824.761,227.30710264933464
824.88,221.407845527217
824.998,227.99215736864036
825.117,277.6610954197773
825.235,360.6553523213205
825.354,480.82406227240403
825.472,595.1735023293049
825.591,626.8616811500323
825.709,566.3526679986553
825.828,470.13141137966056
825.946,348.3281947887547
826.064,248.498356703764
826.183,200.94773939799384
826.301,204.82958962469104
826.42,230.198885738834
826.538,232.766233801029
826.657,232.10847363811587
826.775,240.07841910290847
826.894,231.68905720839382
827.012,220.14298535716944
827.13,213.9917187007502
827.249,199.30711871099766
827.367,198.3194884182146
827.486,194.89895769253093
827.604,194.1719334603537
827.723,207.67780966107688
827.841,215.754248632363
827.959,228.88436725732896
828.078,245.90106596887514
828.196,257.62166078431744
828.315,275.949182006686
828.433,276.6619846143358
828.552,268.53322878042695
828.67,249.6512261932712
828.788,217.0168426537344
828.907,173.03934189706004
829.025,138.1821001405377
829.143,101.29417901667435
829.262,75.4601215210699
829.38,55.47973571029689
829.499,48.07751980164497
829.617,43.44362498760395
829.735,43.35644066830232
829.854,50.15354934332137
829.972,61.04136155441947
830.091,83.61619375348644
830.209,98.43653409783036
830.327,123.82961346568646
830.446,147.62082048529606
830.564,168.8232461319245
830.682,184.6617123147381
830.801,191.3997455971188
830.919,183.7680819098024
831.037,180.72602861209646
831.156,157.8631960936113
831.274,142.67915145391396
831.392,125.03276915187887
831.511,124.99591065936761
831.629,132.0594850672892
831.747,135.7845313366825
831.866,137.95633085282913
831.984,148.49955894040434
832.102,147.70685629204894
832.221,141.49424022378
832.339,127.19937307326012
832.457,119.11749293572746
832.576,112.84600240858443
832.694,103.21512892848855
832.812,92.18370246445596
832.93,92.64063923681033
833.049,87.88151313202476
833.167,82.37517797843313
833.285,78.51034085815746
833.404,77.28554527450945
833.522,83.01393305675198
833.64,89.22454306139824
833.759,99.83323520864079
833.877,129.45488478099955
833.995,155.8682424281772
834.113,182.06831845034267
834.232,215.49436849848212
834.35,236.153318979522
834.468,243.4901915384842
834.586,239.95606842645083
834.705,236.69726998974204
834.823,229.16834168290333
834.941,206.75889389554501
835.059,186.27758463632506
835.178,180.09843987926945
835.296,173.11323451615303
835.414,161.39036681537442
835.532,173.76533461243127
835.651,196.3541552233409
835.769,206.77760786888263
835.887,222.55950207286583
836.005,240.5924785279313
836.124,264.5830307405724
836.242,283.22553100516143
836.36,296.2671654688846
836.478,326.1789298027377
836.596,343.2655859114825
836.715,344.4163112842966
836.833,353.0743959644701
836.951,362.9766364887995
837.069,365.78017571442757
837.188,368.70492706126765
837.306,376.6331416115711
837.424,388.595122395641
837.542,397.4116486342565
837.66,406.3346683793656
837.779,417.32089158767815
837.897,421.21187670075255
838.015,423.4032947142598
838.133,420.0518555849098
838.251,418.690892646036
838.369,411.64854442577695
838.487,410.92481092413254
838.606,414.2893891107997
838.724,416.6253958688952
838.842,416.859238124826
838.96,420.03334012101624
839.078,414.96328627305047
839.196,418.0326263644786
839.315,414.6777240316643
839.433,418.2232545992831
839.551,424.20081979893644
839.669,422.18444560465065
839.787,424.2918809341742
839.905,422.437411501793
840.023,419.19506328153295
840.142,418.98561549417343
840.26,410.5874231180695
840.378,401.7623909151257
840.496,397.31051888534216
840.614,386.25604945296135
840.732,388.2613202803206
840.85,389.15057379166257
840.968,392.0138532770303
841.087,398.41739250265795
841.205,404.3689836763373
841.323,417.7378908673327
841.441,427.63320498473513
841.559,442.4549260285445
841.677,455.67318386889076
841.795,467.38754560534085
841.913,474.88805452793815
842.031,489.6872647492369
842.149,505.7124489965095
842.267,522.5592782654273
842.385,536.2381421663798
842.504,550.1161402664663
842.622,562.024441396856
842.74,572.1968117913149
842.858,570.1882298048214
842.976,568.2584356971159
843.094,556.6940095547786
843.212,540.4620509449089
843.33,532.9201356250826
843.448,529.9678306948666
843.566,534.6917162408411
843.684,542.4865974578112
843.802,558.8200068133095
843.92,573.8850179004096
844.038,587.483362320843
844.156,594.456598516168
844.274,601.9960684777268
844.392,606.3987419024891
844.51,604.2715451973809
844.628,598.73049567842
844.746,587.9106582806711
844.864,562.3323793244806
844.982,527.7714163856062
845.1,488.82517206145064
845.218,453.0295770879444
845.336,421.15519423565036
845.454,397.1318936344386
845.572,375.7622726869066
845.69,349.9796647263877
845.808,333.9329875017994
845.926,309.49843148933223
846.044,295.25002266301215
846.162,282.76005539513335
846.28,264.1263651835317
846.398,244.501332980588
846.516,221.482361383705
846.634,194.25906078249318
846.752,172.2452839908052
846.87,146.22544659305657
846.988,140.01426720396594
847.106,129.2844730962604
847.224,120.03086946474536
847.342,117.96860782457222
847.46,118.2656535437065
847.578,105.35226623991136
847.696,91.79215463105625
847.814,89.78895728803737
847.932,103.16979241832766
848.05,106.6320111127296
848.168,133.1951453973239
848.285,156.74203377459438
848.403,175.30193810654515
848.521,177.9154786796359
848.639,181.25542617913356
848.757,189.97719186044947
848.875,204.99246403527195
848.993,207.0172600196183
849.111,223.5485495104582
849.229,235.12053164199065
849.347,244.04316312417242
849.465,251.79956084012048
849.582,254.60617500628499
849.7,259.4621398218001
849.818,272.9942951135057
849.936,271.8355413143023
850.054,271.94431998263144
850.172,281.6201982180602
850.29,292.8051673625798
850.408,301.6308291477921
850.525,303.08852556503894
850.643,309.76526960133333
850.761,319.70521710083085
850.879,315.07633343149735
850.997,310.3478826625966
851.115,311.6739773482414
851.233,316.9091629429771
851.35,320.9685909619554
851.468,332.2565904095051
851.586,361.444156956622
851.704,396.8343209063364
851.822,436.52578355734937
851.94,489.1869431780593
852.057,546.2636872143535
852.175,602.7205178307339
852.293,646.7712878410537
852.411,686.9978154271308
852.529,733.6918754807405
852.647,768.8361519845666
852.764,801.0964458044102
852.882,837.5247049922193
853.0,864.8101070371708
853.118,887.1292753158883
853.236,891.4112141573764
853.353,882.3234560291673
853.471,863.2486849139457
853.589,826.2726150974253
853.707,778.1727357570957
853.824,737.3161464600563
853.942,695.6448385482983
854.06,661.7380328010424
854.178,625.36456038712
854.296,591.7452005273099
854.413,557.7994337410929
854.531,518.0458747470839
854.649,466.4559521167114
854.767,416.4149472352567
854.884,370.9895267693866
855.002,321.4550153944258
855.12,266.763794062755
855.238,221.34356840207963
855.355,191.39780161586322
855.473,159.88060625821817
855.591,126.6638438010061
855.708,95.07891637360942
855.826,77.07316740282025
855.944,51.01188979338546
856.062,23.28900062661637
856.179,12.75763534749685
856.297,12.72298282442144
856.415,7.343215905397888
856.532,0.38320617621555053
856.65,-11.84709580380076
856.768,-16.334273350193
856.886,-33.207381938338216
857.003,-41.0452616209262
857.121,-41.40960920594107
857.239,-40.76542591177833
857.356,-36.24023945704828
857.474,-34.16227404485886
857.592,-26.760059967856005
857.709,-12.765976456473721
857.827,-9.47678344903033
857.945,-3.8173816292041107
858.062,-1.905450281354757
858.18,6.169187899356907
858.298,12.960882260661968
858.415,12.22214583061573
858.533,14.635300819641039
858.651,5.935384775641991
858.768,-5.501871253940736
858.886,-9.394043851437049
859.003,-11.552330846858212
859.121,-8.759789864362212
859.239,-8.627461942957606
859.356,-12.210621081416578
859.474,-13.905805579363626
859.592,-22.964096520368706
859.709,-23.70507884746936
859.827,-23.175460408322355
859.944,-25.534789791522652
860.062,-22.262380333505334
860.18,-21.511779689071098
860.297,-13.31545764603926
860.415,-2.081159381944707
860.532,7.124252196912277
860.65,16.945425000156476
860.768,24.93571054387554
860.885,33.826210781059736
861.003,39.45551946371587
861.12,45.41465146535707
861.238,59.195197995285
861.356,58.15314654230649
861.473,59.54659292482584
861.591,63.742636709942616
861.708,64.11184066821988
861.826,65.1078844533371
861.943,55.63781918800453
862.061,46.173295424779006
862.178,39.243998693187876
862.296,31.838629370343675
862.414,36.307067183108444
862.531,39.95690800463065
862.649,47.34090974179111
862.766,54.86565034386067
862.884,56.528324339297306
863.001,57.61740220147602
863.119,52.716869674044226
863.236,56.90031983059498
863.354,60.012774316150086
863.471,57.31397339044976
863.589,65.64893869851568
863.706,72.75186937454686
863.824,89.75350134927939
863.941,104.15080431968283
864.059,106.692696034675
864.176,107.39822411330348
864.294,104.05440154258133
864.411,91.13828459956478
864.529,85.8948949292757
864.646,88.11297712045837
864.764,96.25227143285339
864.881,107.30498565866847
864.999,116.8581327849165
865.116,127.88833618822088
865.233,148.654470327456
865.351,163.2586997047864
865.468,180.88111090029864
865.586,194.51304590533454
865.703,205.69649606188557
865.821,205.56479470328495
865.938,201.16382927542026
866.056,199.68147856617043
866.173,197.7766170344097
866.29,203.7886386195322
866.408,215.96343076742534
866.525,220.578915556011
866.643,222.3580367082331
866.76,211.96746089075828
866.878,199.46086775726627
866.995,184.8148806843804
867.112,175.32387196647278
867.23,178.06489788059991
867.347,186.6855774743806
867.465,196.6802830421872
867.582,205.88104921605452
867.699,215.28008378819027
867.817,222.85141273262045
867.934,229.63659449090343
868.051,244.66073728814754
868.169,258.0935380940498
868.286,268.6899752635884
868.404,283.7219102686248
868.521,304.1659664857824
868.638,329.79443828735543
868.756,355.1198797858979
868.873,384.7154511545702
868.99,418.7854813977014
869.108,456.2459878313087
869.225,488.5861479445697
869.342,519.1349660664887
869.46,549.3911434957669
869.577,580.1832516609759
869.694,598.4021996530246
869.812,611.3769918009176
869.929,619.5621735592005
870.046,628.3283076984358
870.164,626.83903058226
870.281,623.1878487041797
870.398,609.1609092503418
870.516,595.1244459869803
870.633,579.0957749314109
870.75,557.3883159970537
870.867,537.0609436427833
870.985,521.4478570027985
871.102,502.13606906411246
871.219,489.0814239825693
871.337,458.13586981011696
871.454,436.2067658541148
871.571,420.15991298036363
871.688,394.15375274730513
871.806,375.6731336397876
871.923,356.94316388291963
872.04,329.07812919098683
872.157,299.50227198823154
872.275,264.4995749586365
872.392,244.42068745285093
872.509,226.71322851849413
872.626,206.26637564474345
872.744,192.96844051991073
872.861,175.6869556115284
872.978,152.30676940444465
873.095,140.15948363026138
873.213,119.22951387339401
873.33,104.65019346717591
873.447,96.06221505229989
873.564,78.9157950789824
873.681,58.813530949820844
873.799,42.3450330544256
873.916,33.34147022396538
874.033,34.1006779562759
874.15,25.40641118251707
874.267,19.35222785617752
874.385,17.331140040999713
874.502,9.199785702293605
874.619,7.983190611698784
874.736,9.598643062839814
874.853,12.545828607652702
874.97,15.260684132174152
875.088,16.591916100349295
875.205,10.631509977293572
875.322,4.585851095989849
875.439,-0.22494176178145686
875.556,-2.30331199637439
875.673,2.247775614519551
875.791,-3.873502186783979
875.908,-12.327542340812998
876.025,-12.00599995619691
876.142,-8.705290063027253
876.259,-8.439236097170362
876.376,-14.591250387479652
876.493,-17.510677052786406
876.61,-12.773930004770268
876.728,-10.486579974478063
876.845,-8.983372266186155
876.962,-2.502646385889782
877.079,3.0249311490148507
877.196,8.705624185978925
877.313,6.523307619186627
877.43,0.7476989621077919
877.547,-3.849612288826735
877.664,1.6304737422969555
877.781,3.7489699997796073
877.898,2.4422905935324577
878.016,-0.36245863306321535
878.133,2.1366820035573695
878.25,2.5867896672900113
878.367,-10.891159853293717
878.484,-18.656505202428413
878.601,-21.63055832311072
878.718,-22.08105364485618
878.835,-22.107110402777344
878.952,-18.413856883354725
879.069,-7.330706635281608
879.186,4.6432788773188935
879.303,3.875944992494969
879.42,4.671201126253053
879.537,-0.6358728218211416
879.654,-5.841403459258208
879.771,-15.784469068164903
879.888,-17.85130651750361
880.005,-21.876426270733713
880.122,-25.181358762242194
880.239,-27.76610399202905
880.356,-29.630661960094297
