wavelength_nm,intensity
792.446,0.26768293168098595
792.565,0.23232007805506055
792.684,0.20286346544769757
792.803,0.179313093858897
792.922,0.16166896328865873
793.041,0.1439071289846608
793.16,0.13515454299042381
793.279,0.1423765125717702
793.398,0.15269781329135837
793.518,0.178660142254638
793.637,0.2017878230925599
793.756,0.22332205872160354
793.875,0.2357815436791118
793.994,0.23245696462333978
794.113,0.21960713906097204
794.232,0.2070266752516152
794.351,0.19518144203360321
794.47,0.19266227467107716
794.589,0.18954757052956173
794.708,0.19054080021932396
794.827,0.19247111471732745
794.946,0.18193659712624927
795.066,0.18072146147619023
795.185,0.1815101633832692
795.304,0.18396650194980768
795.423,0.17758804237416786
795.542,0.17346941427974338
795.661,0.1679030503118163
795.78,0.16367948476026356
795.899,0.15133162117435037
796.018,0.15269915007425175
796.137,0.1450540887071587
796.256,0.1378902691816733
796.375,0.13029400039018776
796.494,0.1262455533976644
796.613,0.1279352469748642
796.732,0.12257203903345093
796.851,0.11889476043322364
796.97,0.12442482993032819
797.089,0.1172882075682434
797.208,0.12506085490215446
797.327,0.1353185760816
797.446,0.1415354584937903
797.565,0.1545601539030535
797.684,0.1587065707528284
797.803,0.16186443665296776
797.922,0.15935969021685842
798.041,0.14723679086306507
798.16,0.147531936197086
798.279,0.1400249481740448
798.398,0.1348740400005406
798.517,0.1358128462977117
798.636,0.1377067839721845
798.755,0.14101035920769917
798.874,0.14397840193698186
798.993,0.1479436847047067
799.112,0.14615946424811488
799.231,0.14677075873641382
799.35,0.1408237963499169
799.469,0.1444629040916634
799.588,0.14459897226137522
799.707,0.14648422084704107
799.826,0.1510189731273351
799.945,0.14928621881213766
800.064,0.145237488134204
800.183,0.15156620305737933
800.302,0.15134000306299217
800.421,0.1638941159205183
800.54,0.16959253770947724
800.659,0.1710546945093965
800.778,0.1780277387871687
800.897,0.18072107263186726
801.016,0.17975563169745518
801.135,0.18035489513971442
801.254,0.18371862560543023
801.373,0.19132731014899246
801.492,0.19531866018313815
801.611,0.20107322685361806
801.729,0.21187281216361692
801.848,0.21505741372162335
801.967,0.2002368864890413
802.086,0.18434091741875594
802.205,0.1648911110264884
802.324,0.14263671972254416
802.443,0.11991026032080399
802.562,0.1061432880696527
802.681,0.09313502890553622
802.8,0.08229820945554983
802.919,0.07037910568488168
803.038,0.06780677323607281
803.157,0.06669126538259192
803.276,0.0628784740268878
803.394,0.061470556683580785
803.513,0.057598225131662406
803.632,0.05035883401361457
803.751,0.0478316982405825
803.87,0.041502421354166125
803.989,0.03774676953737433
804.108,0.034697811404558423
804.227,0.03659429311870267
804.346,0.04246553613932379
804.465,0.04524751157326239
804.583,0.049116948228661916
804.702,0.057271051539986226
804.821,0.05640045601623453
804.94,0.05727937299770612
805.059,0.05842358542645694
805.178,0.06442075552932147
805.297,0.06809885548782868
805.416,0.07849057560747935
805.535,0.08597744983112776
805.653,0.09148618431627677
805.772,0.1007970579300768
805.891,0.11960911562014742
806.01,0.13579440626758388
806.129,0.1621273136193611
806.248,0.19116755421911347
806.367,0.22009209456384626
806.485,0.23803406365462063
806.604,0.2499678620312142
806.723,0.26221246243051266
806.842,0.26088604289647854
806.961,0.2566334056088919
807.08,0.2513895438058831
807.198,0.24664229684775524
807.317,0.23417245511471996
807.436,0.22835578184190886
807.555,0.22644986692360577
807.674,0.23203662012255347
807.793,0.24014855620704728
807.912,0.256831275812282
808.03,0.276809165249635
808.149,0.3062153844338156
808.268,0.3315277060070987
808.387,0.35407355538258506
808.506,0.36115951059642937
808.624,0.3511593752588662
808.743,0.33537698551609907
808.862,0.31214002596854196
808.981,0.2911916387344073
809.1,0.275264876439158
809.219,0.2610010720632414
809.337,0.2523624501025596
809.456,0.24121869699973197
809.575,0.23695202349176542
809.694,0.24028295555817783
809.812,0.2495919807236705
809.931,0.26530954307990356
810.05,0.27527359186313993
810.169,0.2903521719963497
810.288,0.2989460183138982
810.406,0.3005558424051175
810.525,0.3010320746027725
810.644,0.3005177506764521
810.763,0.30668800960834963
810.882,0.3174207085552653
811.0,0.31998900598101987
811.119,0.3369878747405336
811.238,0.350571931598974
811.357,0.3593007929887516
811.475,0.36055169087310557
811.594,0.371547736050012
811.713,0.3794665070064168
811.832,0.3849556750541505
811.95,0.38691105752330224
812.069,0.3882174318977305
812.188,0.3932006276203297
812.307,0.3933426640946466
812.425,0.3928470551288334
812.544,0.396278914303695
812.663,0.40064785828679794
812.782,0.4020925896906884
812.9,0.40843596200727544
813.019,0.4164376135030683
813.138,0.4302402343645719
813.257,0.449053785901814
813.375,0.465822059612224
813.494,0.4786996267115264
813.613,0.48641052792801454
813.731,0.4798699867184528
813.85,0.4785515878817794
813.969,0.47556622077709315
814.088,0.470589047161309
814.206,0.46750408973106783
814.325,0.46863935589514605
814.444,0.47155722204751205
814.562,0.47227140160018344
814.681,0.47330640904725985
814.8,0.4872079518428709
814.918,0.4870211397254216
815.037,0.48287611346075043
815.156,0.47377429622752176
815.274,0.46771299168522756
815.393,0.45625175264522877
815.512,0.44877011627874563
815.631,0.44718302408050803
815.749,0.4519576816717432
815.868,0.4558707826882117
815.987,0.4565869674152234
816.105,0.4529786594822342
816.224,0.4410970022222754
816.343,0.4194488091434704
816.461,0.4025127757637391
816.58,0.3839518827771357
816.698,0.366014599010282
816.817,0.3560124584983791
816.936,0.3417974466980702
817.055,0.32504856292340845
817.173,0.30752100311336783
817.292,0.2939436367531892
817.41,0.29387780348758863
817.529,0.28937251423315874
817.648,0.29301491671372315
817.766,0.30207195830381905
817.885,0.3139984043744999
818.004,0.316735136444817
818.122,0.3259271931071418
818.241,0.33566131523272175
818.359,0.34366671928394
818.478,0.341683870916238
818.597,0.32332425950350907
818.715,0.33086899997686536
818.834,0.3388910682434223
818.953,0.43683918520310006
819.071,0.5662603790877667
819.19,0.7018626497467544
819.308,0.8018157712697258
819.427,0.8298785898697143
819.546,0.7642269307862861
819.664,0.6588815993053019
819.783,0.517304015051456
819.901,0.44306262906875277
820.02,0.37683609168191357
820.138,0.33690947836534474
820.257,0.30718288263067794
820.376,0.280145449317315
820.494,0.2635262334833086
820.613,0.25950619641916595
820.731,0.2656911599628895
820.85,0.2792057041108746
820.969,0.29772182145434456
821.087,0.3241289682172847
821.206,0.34793339868686424
821.324,0.35920682631414125
821.443,0.3571431710144229
821.561,0.34720720125574134
821.68,0.32787565293111914
821.798,0.29821344640665526
821.917,0.27264580588453535
822.035,0.2626282923693587
822.154,0.2554360694992861
822.273,0.2506968432385187
822.391,0.24540819920858264
822.51,0.2505444565724697
822.628,0.24862450543378645
822.747,0.24727602898201223
822.865,0.25402979364685824
822.984,0.26027223885499623
823.102,0.25754286567438706
823.221,0.26197731201926333
823.339,0.2640463210343492
823.458,0.2669976067590489
823.576,0.2616040252719846
823.695,0.2638347850171663
823.813,0.26665372923542396
823.932,0.2670530964167105
824.05,0.2543118877563246
824.169,0.25226962098289935
824.287,0.25334540030822295
824.406,0.25329761361168224
824.524,0.25828014094283347
824.643,0.26275736434029684
824.761,0.26030336843571844
824.88,0.2615749864549183
824.998,0.2525400083663568
825.117,0.25689558452052486
825.235,0.2557596565487936
825.354,0.24913356123405644
825.472,0.2484782067124861
825.591,0.2447622877565812
825.709,0.2393359550886296
825.828,0.24638113842422646
825.946,0.2442152192331657
826.064,0.2523619116728863
826.183,0.25699687545176525
826.301,0.25307843388751694
826.42,0.2507587846637203
826.538,0.2535857495793375
826.657,0.2512487221779272
826.775,0.24993099173269956
826.894,0.24509418032071684
827.012,0.2371740791652124
827.13,0.23151447788237006
827.249,0.22161460126180788
827.367,0.21233298672942202
827.486,0.21352439777501997
827.604,0.2131678142301136
827.723,0.22216336380711343
827.841,0.23493331988349897
827.959,0.2389159336104203
828.078,0.2539510682995947
828.196,0.2719959696731563
828.315,0.2789395575088577
828.433,0.28525285221034247
828.552,0.28070679107766405
828.67,0.2687115072717692
828.788,0.24385637203180638
828.907,0.20956470381897363
829.025,0.18092427753600981
829.143,0.15186967996166528
829.262,0.12436795885121846
829.38,0.10807354263727297
829.499,0.09523292326037089
829.617,0.09013068487012854
829.735,0.08911330438621046
829.854,0.09003591728572768
829.972,0.09784514444948322
830.091,0.10671750583817644
830.209,0.12569452304230508
830.327,0.14329277431276233
830.446,0.16555213538584884
830.564,0.18327953789878954
830.682,0.1929566495327327
830.801,0.1963883435533117
830.919,0.19347566596203136
831.037,0.1899975292068621
831.156,0.18151956999988172
831.274,0.1654281334442464
831.392,0.15918037926893458
831.511,0.16003971268947081
831.629,0.1582250493384043
831.747,0.16040744818179703
831.866,0.16410269841412936
831.984,0.17702593057973004
832.102,0.17309875862441437
832.221,0.1648250379710371
832.339,0.16072590177515683
832.457,0.1621029955794453
832.576,0.15957019409687934
832.694,0.15406721219391767
832.812,0.1497227701598186
832.93,0.14984318986765713
833.049,0.13649241093127706
833.167,0.1200875122185329
833.285,0.11521244063729141
833.404,0.11920643844957082
833.522,0.1297240233586425
833.64,0.13900754220245454
833.759,0.15511110860797783
833.877,0.17637602237901018
833.995,0.19316228344397862
834.113,0.20664859335408037
834.232,0.23327748428019457
834.35,0.24884182319801584
834.468,0.2531130202327805
834.586,0.25499538623712115
834.705,0.2511589950236923
834.823,0.24387771429408983
834.941,0.22884242439158609
835.059,0.21096647084070447
835.178,0.2097535160554836
835.296,0.2004450040681094
835.414,0.19519429655351211
835.532,0.20253207354563177
835.651,0.21691335960283492
835.769,0.2269467592994034
835.887,0.23726556214370292
836.005,0.24983818094619767
836.124,0.26838087215041234
836.242,0.2846684106135384
836.36,0.29973680307792544
836.478,0.31757434130589557
836.596,0.3309136050977287
836.715,0.3322385326355404
836.833,0.33917861671688665
836.951,0.3505708562245492
837.069,0.35658856010948103
837.188,0.3684413213239042
837.306,0.37487743825445596
837.424,0.3827759956703374
837.542,0.38098287710940054
837.66,0.37608975901877517
837.779,0.38417479764827966
837.897,0.3836014934775285
838.015,0.3859423760142897
838.133,0.38881797170839255
838.251,0.3900025370424023
838.369,0.39769456150126037
838.487,0.39675898916641
838.606,0.3967377763306139
838.724,0.4021372181273696
838.842,0.402434159620192
838.96,0.39942323184340967
839.078,0.3987082286859631
839.196,0.39842567479451674
839.315,0.4009583856764742
839.433,0.3998416792595745
839.551,0.39680535260781813
839.669,0.39508308354022914
839.787,0.4014837757241073
839.905,0.3963928137652658
840.023,0.39867354107182634
840.142,0.39998042204057827
840.26,0.39363689451066364
840.378,0.39136654445679947
840.496,0.38763976944062567
840.614,0.3845760387395555
840.732,0.3854324238732466
840.85,0.3839514441179077
840.968,0.3850517921296359
841.087,0.38943060018731535
841.205,0.3893746309962922
841.323,0.39908252405832856
841.441,0.40704391027019765
841.559,0.4210709488606619
841.677,0.43488209701384944
841.795,0.45006545280706517
841.913,0.4625164243662648
842.031,0.4745008586956837
842.149,0.4864024124857145
842.267,0.4947782013945232
842.385,0.5060688454022908
842.504,0.5172993341798573
842.622,0.5256744546972193
842.74,0.5335850431591405
842.858,0.5332450076032795
842.976,0.5272436964940633
843.094,0.5183154992398481
843.212,0.5131490090475317
843.33,0.5156723624492358
843.448,0.5164826285731066
843.566,0.5232128377401967
843.684,0.5358449433814458
843.802,0.542127998670709
843.92,0.5434034652414674
844.038,0.5438033390170786
844.156,0.5484969594461437
844.274,0.5548227917879944
844.392,0.5595391375262468
844.51,0.5593321118682757
844.628,0.5558492997301399
844.746,0.5454960919116099
844.864,0.5244432738146726
844.982,0.4970427421486426
845.1,0.46582435853919285
845.218,0.44254713370771404
845.336,0.4104297636024835
845.454,0.38445357410932257
845.572,0.35965442195375996
845.69,0.3424568857212564
845.808,0.32507687862380996
845.926,0.30775769514801105
846.044,0.29206002932185077
846.162,0.2844265062998499
846.28,0.2614460472706953
846.398,0.2513942839946163
846.516,0.23627745033561792
846.634,0.2264061527501416
846.752,0.20997191954974248
846.87,0.19137945036802295
846.988,0.17905315099890157
847.106,0.16380330744201438
847.224,0.1539173052447111
847.342,0.14675124991058586
847.46,0.1466274149447004
847.578,0.14537351843529342
847.696,0.140739429108783
847.814,0.1416910522434327
847.932,0.14372061802054475
848.05,0.14342095701925542
848.168,0.1562740701783995
848.285,0.1687481822046078
848.403,0.18668320702661023
848.521,0.19503293229287644
848.639,0.2056511781291649
848.757,0.21579486603831266
848.875,0.2319834861912084
848.993,0.24534681569900005
849.111,0.25260572612428944
849.229,0.2657397973658708
849.347,0.2727868277025637
849.465,0.2747019485116695
849.582,0.27133343493479267
849.7,0.2748613843047303
849.818,0.2856260078678411
849.936,0.29280337453663574
850.054,0.29338705958396044
850.172,0.3005323434633145
850.29,0.31203286600921665
850.408,0.3116400311529459
850.525,0.3080903834940191
850.643,0.3156641062906931
850.761,0.31747696320845686
850.879,0.32083313597659835
850.997,0.3187973949443954
851.115,0.31796542690765794
851.233,0.3243166617483596
851.35,0.31936873918298425
851.468,0.32545529101080145
851.586,0.3515193947883513
851.704,0.3857732989620357
851.822,0.4287624109523434
851.94,0.47513759401151734
852.057,0.5222894479317299
852.175,0.5735044534562928
852.293,0.6115274169977891
852.411,0.6511772453204976
852.529,0.6991258218451493
852.647,0.7360479446739685
852.764,0.7629769469835179
852.882,0.7867284163555642
853.0,0.7995002194330457
853.118,0.8052144772250632
853.236,0.8008574126985499
853.353,0.7910716728421248
853.471,0.7782895341302464
853.589,0.7472349100491086
853.707,0.7114540900485169
853.824,0.6785687417949304
853.942,0.6526707577249067
854.06,0.6275561284303885
854.178,0.5976137077165217
854.296,0.5670603772203917
854.413,0.5345413074795843
854.531,0.4862896398668908
854.649,0.4401554363572704
854.767,0.3923134927013898
854.884,0.35588968012909483
855.002,0.3173764758944869
855.12,0.2783826982097183
855.238,0.24857195061084666
855.355,0.22185318184430336
855.473,0.18909282279124556
855.591,0.16196700363367603
855.708,0.1364974584809725
855.826,0.11597931806842739
855.944,0.09352543104308095
856.062,0.08194342593923129
856.179,0.07370694058891764
856.297,0.06838187929176351
856.415,0.06310107097733272
856.532,0.05804672651135921
856.65,0.05338124827157231
856.768,0.053592608388770425
856.886,0.04314542516530174
857.003,0.04010449596056623
857.121,0.040631212438086185
857.239,0.04449022932923828
857.356,0.04348201394556003
857.474,0.04045566884830401
857.592,0.040155166952609816
857.709,0.047142562598802756
857.827,0.04656733857445415
857.945,0.051345100033462335
858.062,0.06307452562593918
858.18,0.07461980108115515
858.298,0.07649109959377898
858.415,0.07557535909790888
858.533,0.07072359883333025
858.651,0.06966884104908291
858.768,0.06094114755562045
858.886,0.05750261028987996
859.003,0.05636754529735906
859.121,0.053579381636757295
859.239,0.048742459512301564
859.356,0.041535354389024004
859.474,0.041134799763513044
859.592,0.0463359321828296
859.709,0.042266018872002084
859.827,0.047049297662152614
859.944,0.0478926708885825
860.062,0.04596726309133661
860.18,0.047730442786628705
860.297,0.04982595703365403
860.415,0.055495516222337574
860.532,0.06330078487620422
860.65,0.06626157708829997
860.768,0.07197478347677928
860.885,0.08136366717723292
861.003,0.09009054525920568
861.12,0.09981065242561357
861.238,0.10428401040956164
861.356,0.10601566286773115
861.473,0.11123374646227696
861.591,0.11294362552317574
861.708,0.11094927918658994
861.826,0.11704714809492414
861.943,0.11554062263272527
862.061,0.10948977364569337
862.178,0.10241552568059797
862.296,0.10171246371201141
862.414,0.10041110412827682
862.531,0.10175732179161284
862.649,0.09961644960443343
862.766,0.10859433905385296
862.884,0.111937583726097
863.001,0.11398615416612738
863.119,0.11147963689705323
863.236,0.11364116549157208
863.354,0.11036532966737236
863.471,0.1029454668737743
863.589,0.1031091734341747
863.706,0.1136650302075109
863.824,0.12939289999523462
863.941,0.14778163613218004
864.059,0.1540764974329495
864.176,0.15646394233644453
864.294,0.15557560075977495
864.411,0.14592264214282819
864.529,0.13745006282071312
864.646,0.13663925465185797
864.764,0.14486977758220446
864.881,0.15789667753390607
864.999,0.16414408304196154
865.116,0.17398476096735344
865.233,0.19037834863596786
865.351,0.2047928292309713
865.468,0.2166614068055815
865.586,0.23404421381527785
865.703,0.24401322289843147
865.821,0.2457837424966433
865.938,0.2412974497625104
866.056,0.23817400718815218
866.173,0.22951160469518067
866.29,0.22686539361375008
866.408,0.2251696351694943
866.525,0.2295127934459663
866.643,0.22864918235282347
866.76,0.22830557980519542
866.878,0.23125647869823884
866.995,0.2324307931260144
867.112,0.229648898580908
867.23,0.2317549506853515
867.347,0.23303954970182877
867.465,0.23899821010491923
867.582,0.2466813204404366
867.699,0.250994401101808
867.817,0.25794896476044743
867.934,0.260932614834378
868.051,0.2751151635973842
868.169,0.2860981225051469
868.286,0.29766592392875213
868.404,0.3152505851553449
868.521,0.3306215339105428
868.638,0.3438309047271868
868.756,0.3659853582747107
868.873,0.38394832906012233
868.99,0.41152276884875116
869.108,0.4342794430897311
869.225,0.46243404665407584
869.342,0.4933424229787303
869.46,0.5251050035722382
869.577,0.560542400339577
869.694,0.5873274698296804
869.812,0.6024377459206742
869.929,0.6106508906734069
870.046,0.6127235232055166
870.164,0.6110464797217676
870.281,0.5990608349559172
870.398,0.5872823915385369
870.516,0.5720229654668619
870.633,0.5556687142055299
870.75,0.5358588791648772
870.867,0.5179105143032201
870.985,0.5011632488712419
871.102,0.48996363244668373
871.219,0.4654423060984038
871.337,0.4419583232753669
871.454,0.42913518402683015
871.571,0.4091756293021219
871.688,0.3880390372398151
871.806,0.36845378172524584
871.923,0.3505849554457434
872.04,0.33756931946056357
872.157,0.31107155960445954
872.275,0.2933384167886326
872.392,0.2812779121807546
872.509,0.2612074044758977
872.626,0.25044090570878635
872.744,0.23234081598873363
872.861,0.21986323511812866
872.978,0.198158510326146
873.095,0.17522528205517085
873.213,0.16240347958952742
873.33,0.146232367584585
873.447,0.13286382091555984
873.564,0.12717509196885501
873.681,0.11260959531317842
873.799,0.10548186594656
873.916,0.09213392751683258
874.033,0.08066855454528149
874.15,0.07936583386609247
874.267,0.07374296391693902
874.385,0.07181947618307202
874.502,0.07477184684582286
874.619,0.07262808218680776
874.736,0.07318828066073044
874.853,0.07274735455664103
874.97,0.06615041249734277
875.088,0.06678926551994559
875.205,0.06221238016189539
875.322,0.06413814942506221
875.439,0.06069793186539637
875.556,0.06242624008705096
875.673,0.05717610888433092
875.791,0.055105983482938076
875.908,0.054832959701959075
876.025,0.05543639538772935
876.142,0.054377666389220466
876.259,0.06239739540527307
876.376,0.05886478463110117
876.493,0.05702397065541085
876.61,0.05380057520165951
876.728,0.05192857146177949
876.845,0.05507953914237137
876.962,0.05747262773979554
877.079,0.059924210368608434
877.196,0.0681910039371354
877.313,0.07182489593375263
877.43,0.07061431262457495
877.547,0.0689274788581164
877.664,0.06628086241455429
877.781,0.06734592633491782
877.898,0.06880573158883743
878.016,0.062301400870769685
878.133,0.06255674556588073
878.25,0.06906074430721315
878.367,0.06993514942375949
