wavelength_nm,intensity
792.446,227.32195205831044
792.565,184.56134599770434
792.684,149.3323416687
792.803,121.6349390712974
792.922,101.4691382054964
793.041,82.36351049986877
793.16,77.77390011025842
793.279,89.58169231805061
793.398,106.15658409294238
793.518,124.91935465571285
793.637,154.58602132237945
793.756,183.64922478558287
793.875,191.84835898471704
793.994,189.19641093276903
794.113,180.05874859510675
794.232,164.8604801968384
794.351,151.30377024012853
794.47,134.94706028341858
794.589,133.8414325777908
794.708,129.38255811891634
794.827,119.68558842194668
794.946,110.32541526177351
795.066,106.84143257779084
795.185,115.6466273829856
795.304,125.62325075960896
795.423,127.46480920116741
795.542,126.48558842194659
795.661,115.78775292411115
795.78,104.54446288082114
795.899,81.18688712324544
796.018,65.0353719717303
796.137,63.56783950419777
796.256,71.86740660376483
796.375,78.13407327043144
796.494,75.73580487216304
796.613,76.63710357346179
796.732,71.6414325777908
796.851,64.80680054315877
796.97,61.05182218818045
797.089,60.670004006362284
797.208,75.68039361675187
797.327,90.99121612757439
797.446,99.24056677692514
797.565,110.5141598505182
797.684,113.05441959077791
797.803,112.9349390712974
797.922,110.81632435268267
798.041,100.9332074695657
798.16,96.85701699337518
798.279,83.51231322111047
798.398,69.34315510943205
798.517,66.39968990320251
798.636,68.61088040821417
798.755,74.8425136491971
798.874,81.5569411295597
798.993,84.75160696991682
799.112,92.9278790769208
799.231,89.88239113460372
799.35,88.608331763715
799.469,87.63816849672233
799.588,83.78921735094178
799.707,75.76624023113531
799.826,68.74326311132896
799.945,62.52201759325428
800.064,70.13280670721409
800.183,78.93147460905259
800.302,88.79248017322882
800.421,97.85175413567345
800.54,100.12228350937353
800.659,102.51748820774904
800.778,103.15251974595154
800.897,102.8637417603446
801.016,104.23903303880672
801.135,111.89051479345923
801.254,118.06147706759228
801.373,126.25668176596758
801.492,129.57569598815218
801.611,136.9250132406397
801.729,140.75571577451242
801.848,141.84702436899107
801.967,131.28378750892404
802.086,122.32487965318596
802.205,108.21099344246946
802.324,90.6914342570384
802.443,63.7924620217387
802.562,43.97134578900828
802.681,24.332373817710746
802.8,6.8928067142802325
802.919,-3.60333275440551
803.038,-13.899504418408561
803.157,-11.796300162019651
803.276,-3.8784053290352576
803.394,-4.355429442959926
803.513,-2.635506378403327
803.632,-10.209603367404283
803.751,-21.690891792121878
803.87,-21.593347159897235
803.989,-31.843330170899463
804.108,-28.05934289431676
804.227,-19.6975185352551
804.346,-14.298032084724104
804.465,-3.459284190597698
804.583,-3.5372475194073796
804.702,-2.338877731995108
804.821,0.020091655991600454
804.94,-2.7689314258499675
805.059,-2.0912634519192004
805.178,-2.2943056728441764
805.297,-1.576542002180453
805.416,15.278819725945619
805.535,25.692949360081087
805.653,38.647705000498135
805.772,48.1309960262584
805.891,62.354718054569034
806.01,78.02406711369792
806.129,100.06751817817619
806.248,123.48493708584789
806.367,153.36815685932044
806.485,175.0903376717543
806.604,191.7874102590801
806.723,207.12863869056181
806.842,211.99021344239
806.961,208.265641008071
807.08,202.66574389842722
807.198,197.0130329359696
807.317,182.96378517697505
807.436,174.58726469070783
807.555,169.1839043776008
807.674,171.9242670082166
807.793,177.63346080766377
807.912,190.60066326511978
808.03,218.24838520309524
808.149,253.95671320167685
808.268,288.23127496649215
808.387,316.7751008005715
808.506,328.2167621324864
808.624,322.86015506613296
808.743,307.6541973504289
808.862,284.6923954788807
808.981,262.51154598828464
809.1,238.77225493924703
809.219,224.1282019854474
809.337,208.23046937796812
809.456,197.88598352373566
809.575,192.03154095954653
809.694,191.68878670704584
809.812,196.06897617748893
809.931,197.14180634057283
810.05,206.2293551183754
810.169,224.90651428578846
810.288,238.78627085579905
810.406,256.5742525340347
810.525,263.90682295685906
810.644,267.11038905067903
810.763,271.2213144518582
810.882,268.42574634654386
811.0,271.33494014599125
811.119,280.4995452008501
811.238,294.0173970089556
811.357,302.48503236684485
811.475,297.8253949974612
811.594,302.077445939766
811.713,310.60395575652956
811.832,315.6776517204793
811.95,312.3703953034767
812.069,316.28218650552185
812.188,323.885752599342
812.307,328.22524942909314
812.425,335.51539560949357
812.544,346.5458015301539
812.663,358.0575927321993
812.782,371.4525008173616
812.9,371.58766864278357
813.019,382.503788849158
813.138,381.9584371940607
813.257,394.8390595649374
813.375,405.95085076698285
813.494,413.9665380729246
813.613,427.4878530844941
813.731,435.8022416891373
813.85,434.727885705036
813.969,435.93491500231994
814.088,421.1177018753616
814.206,417.1195363674509
814.325,410.4694228075921
814.444,414.6877075161315
814.562,418.487810406489
814.681,417.97103017996335
814.8,425.48108978027744
814.918,421.654352843795
815.037,417.07696655666325
815.156,412.6770694470208
815.274,405.4234926836988
815.393,405.64956960003036
815.512,400.41850365921914
815.631,399.96839009936036
815.749,404.8039908252159
815.868,398.7789854904655
815.987,401.7643697661049
816.105,394.94629083828136
816.224,377.127346109592
816.343,362.71013298263455
816.461,343.48253024528765
816.58,322.82895348196723
816.698,307.12689187016196
816.817,295.34344497697145
816.936,294.611946135729
817.055,287.76442997846925
817.173,276.8104203147157
817.292,274.35251454706605
817.41,267.86084254565014
817.529,258.88865106371486
817.648,253.81429507961488
817.766,261.97716853274426
817.885,271.663851509683
818.004,278.70031803640535
818.122,286.82249884884186
818.241,297.3602640768628
818.359,303.93055022243965
818.478,307.4154205500601
818.597,288.6191070929583
818.715,305.4228677424271
818.834,316.83274296197004
818.953,431.78037541426283
819.071,560.0769809912538
819.19,722.9168121171642
819.308,855.478851183095
819.427,926.1243652116578
819.546,877.9492622676416
819.664,771.4327403673094
819.783,600.6433312935776
819.901,494.89285394552394
820.02,373.0688207647203
820.138,310.84136597644385
820.257,272.83629639054084
820.376,250.58289532410413
820.494,223.46092029238537
820.613,213.38483270655416
820.731,213.61177542375333
820.85,225.59109909333347
820.969,241.57994657243734
821.087,268.9878416705889
821.206,306.39487096787474
821.324,316.87722494048535
821.443,317.9180204715375
821.561,310.99258223635604
821.68,299.0203907544214
821.798,264.6222252465127
821.917,232.2136701282144
822.035,211.2302232350243
822.154,199.89179798685586
822.273,191.91268009799478
822.391,191.8305319061035
822.51,203.64362180945034
822.628,209.8939411500266
822.747,215.91655486289739
822.865,221.25085688745645
822.984,215.71416324101995
823.102,211.35062976774344
823.221,214.37064607801682
823.339,216.8408788385068
823.458,224.79769168557678
823.576,220.01943959758194
823.695,234.2117502801499
823.813,237.3573077159644
823.932,231.3911768400907
824.05,225.04409358326438
824.169,215.09008391951176
824.287,204.69451581420083
824.406,198.47383948378175
824.524,191.7709120711116
824.643,199.4021837926406
824.761,202.87847715919102
824.88,209.8491428201138
824.998,213.04491670614476
825.117,213.54372089520604
825.235,211.65118309292535
825.354,215.61925135125074
825.472,213.93796896022536
825.591,218.14932726184043
825.709,211.61523101800083
825.828,207.57723867026516
825.946,196.23448441776762
826.064,191.02679510033494
826.183,188.41997158376824
826.301,203.17938183343543
826.42,205.7361946805052
826.538,211.31898155354892
826.657,209.8195173443417
826.775,212.20923062431197
826.894,196.6768659822044
827.012,182.20597320156872
827.13,170.1281540140067
827.249,166.09189326800316
827.367,153.3067147730818
827.486,149.05746701409117
827.604,154.07315432003568
827.723,174.17975071688926
827.841,194.38937741677313
827.959,212.14965346730645
828.078,227.81642302433318
828.196,246.65721855538573
828.315,249.71619590462
828.433,248.0591559378368
828.552,238.54324151217924
828.67,218.53901539820987
828.788,193.03089318034432
828.907,155.66660768636106
829.025,117.30693011286229
829.143,92.68567737736201
829.262,69.62657430579006
829.38,48.199921354454546
829.499,35.20235484701797
829.617,22.21649161724847
829.735,19.674760241369327
829.854,19.34241748369157
829.972,34.69914328007047
830.091,56.76592844987742
830.209,82.82739824244332
830.327,95.72075604302073
830.446,114.53666419817516
830.564,126.35116675876264
830.682,135.83893185425916
830.801,139.97349068583915
830.919,141.4630278723974
831.037,133.6590585654492
831.156,123.2931844965961
831.274,112.79917189960445
831.392,104.9536441510975
831.511,102.03106012553437
831.629,106.08596527746035
831.747,113.20061068912668
831.866,118.08495307048996
831.984,121.18228246484031
832.102,120.86730018121412
832.221,107.57397331982415
832.339,94.62602395773277
832.457,89.51901999042244
832.576,85.13251048169404
832.694,85.87764471536205
832.812,80.60842889069038
832.93,85.32611675950758
833.049,81.54663303676931
833.167,63.125258425734735
833.285,56.80824693438571
833.404,59.32319571110918
833.522,66.45044589262746
833.64,81.13311856677804
833.759,91.18114715274041
833.877,120.815789371775
833.995,141.20362846823045
834.113,160.24540085900333
834.232,182.56509532769823
834.35,201.70643481803816
834.468,204.82266608326984
834.586,203.99604020564425
834.705,196.9564273150316
834.823,188.12633823394282
834.941,170.74040499700996
835.059,163.30685271245812
835.178,154.6291445837506
835.296,150.9453758489825
835.414,145.4564123090195
835.532,155.76744876905641
835.651,175.99190514251325
835.769,192.53584203545063
835.887,209.00618585479498
836.005,233.10336950097923
836.124,246.6940596406701
836.242,258.0942735898848
836.36,268.74556979018166
836.478,283.0055239991366
836.596,297.23084617345944
836.715,308.39209908371305
836.833,318.7048671454818
836.951,337.08516767478295
837.069,346.59360673222267
837.188,353.85096353858006
837.306,361.6139480505651
837.424,366.49727888289635
837.542,369.46199499661293
837.66,370.17303145664994
837.779,372.76198999460905
837.897,381.0323338139535
838.015,381.268911399532
838.133,378.4206405002619
838.251,382.78102760964987
838.369,389.8401160177391
838.487,390.8108927375166
838.606,384.9851326607574
838.724,384.5585067831321
838.842,385.79508436871015
838.96,373.85330697593315
839.078,361.8180230896496
839.196,357.04594266656966
839.315,363.8937756634032
839.433,360.36325368188193
839.551,366.2344633020923
839.669,372.3056729223026
839.787,381.4574020230324
839.905,374.18575450038566
840.023,368.9937606573926
840.142,365.51258932522194
840.26,359.08596344759667
840.378,351.7234068340407
840.496,348.65002770966214
840.614,346.7653931740281
840.732,346.1430963007315
840.85,337.071448778084
840.968,335.63270168833685
841.087,337.41127061590566
841.205,341.1647313183662
841.323,354.0800967827315
841.441,373.1530380046728
841.559,395.8199186205535
841.677,413.9145048641397
841.795,432.2896105882452
841.913,441.3937206413551
842.031,452.19480039143474
842.149,462.22012256575675
842.267,465.4930637876979
842.385,481.7434941871285
842.504,492.3480371406716
842.622,500.94132468295936
842.74,508.44948162341944
842.858,506.4768629151216
842.976,509.7527003346507
843.094,505.0020041296122
843.212,501.11308598831783
843.33,505.26170348652516
843.448,505.3950427714204
843.566,503.5624544923543
843.684,507.7951074804955
843.802,511.7990213514827
843.92,507.74367812431365
844.038,520.7412946709301
844.156,531.9241926028276
844.274,545.585878413513
844.392,549.9739711506054
844.51,549.2365227621566
844.628,547.067039741673
844.746,533.9910632146958
844.864,497.7315369041689
844.982,473.65556037719176
845.1,440.330233200864
845.218,415.96161598124604
845.336,386.25533642396573
845.454,359.5594464770748
845.572,334.7163703829976
845.69,314.6178830335091
845.808,287.6674476320726
845.926,273.8797827934069
846.044,267.29384955647276
846.162,258.2767474883697
846.28,235.65358481420617
846.398,217.73951304913345
846.516,205.05574431436372
846.634,187.2585556661742
846.752,165.32024147685925
846.87,151.17500088061792
846.988,140.89123214584825
847.106,124.3390651426802
847.224,103.99382454643865
847.342,98.7628696644826
847.46,105.5803996310115
847.578,96.20712636443382
847.696,89.53883303103852
847.814,92.02624910334458
847.932,95.81184689689827
848.05,100.22767706810829
848.168,111.41614783502479
848.285,126.58889943621412
848.403,140.2623019662567
848.521,145.230615548907
848.639,154.26992480255296
848.757,172.2287145756793
848.875,186.4879372492387
848.993,195.82681360245198
849.111,209.30508389505928
849.229,213.92967453398705
849.347,219.94907036772014
849.465,228.93989477288184
849.582,235.78699623432064
849.7,250.7968682585299
849.818,261.90197837797746
849.936,259.1265690169055
850.054,259.80743671211076
850.172,260.5627632817749
850.29,269.45921539256443
850.408,276.0041523518389
850.525,274.5438945059186
850.643,283.2819050582665
850.761,280.64848703918585
850.879,276.11983092486696
850.997,279.3331661525394
851.115,283.2824321161424
851.233,295.8230400710872
851.35,307.63983850222235
851.468,314.6072862840068
851.586,334.5349072259643
851.704,356.4685887739824
851.822,397.7382010579311
851.94,447.58183931590577
852.057,501.53976328816634
852.175,555.8059123686519
852.293,605.4599402370164
852.411,647.8663490577619
852.529,689.1212427269924
852.647,729.0280844481711
852.764,763.5643633987867
852.882,796.8192570680171
853.0,817.7875706506672
853.118,813.3541526315861
853.236,801.6696523614225
853.353,779.0855849916917
853.471,752.8218639423071
853.589,724.2871472219272
853.707,690.2035127526292
853.824,666.2610038244568
853.942,647.2405728183624
854.06,620.0573712494975
854.178,591.1365073429702
854.296,554.1836088044081
854.413,512.0566842918203
854.531,466.52975977923234
854.649,416.4288092926183
854.767,375.3746120527577
854.884,344.81651870900106
855.002,305.5865638933831
855.12,258.9912411123971
855.238,215.67384040933328
855.355,173.21185096168088
855.473,131.6076976676727
855.591,89.50974324761239
855.708,66.73697515055358
855.826,51.1580115151672
855.944,29.912961447346547
856.062,10.36311766424346
856.179,6.066936128645146
856.297,0.6545066776085204
856.415,-4.980649544063313
856.532,-13.189684949762054
856.65,-14.674727373874997
856.768,-20.53042799947428
856.886,-28.442028651581772
857.003,-33.96953315371465
857.121,-37.2411836868537
857.239,-44.61485844824486
857.356,-39.48792767862079
857.474,-41.52826278625818
857.592,-40.02866576147458
857.709,-29.026685851422283
857.827,-23.83663903073505
857.945,-16.8858504343254
858.062,-11.390259919884677
858.18,-10.145338682980796
858.298,-0.12652213788221278
858.415,-2.841084135186488
858.533,-3.316677849185832
858.651,3.214127337870446
858.768,-4.826811668990426
858.886,-3.5684554032989357
859.003,-6.114316807132937
859.121,-12.520497183626073
859.239,-7.128323564577445
859.356,-12.327379990670977
859.474,-13.2958183716872
859.592,-11.520339913924893
859.709,-21.467588486671342
859.827,-18.428552751382334
859.944,-22.10325585963813
860.062,-18.482271605984465
860.18,-9.039169855644905
860.297,-4.334552801781103
860.415,3.8292395765548366
860.532,4.260081997611751
860.65,3.4004886215648744
860.768,15.158828939430954
860.885,25.31988997525403
861.003,46.09068315176944
861.12,55.96641611066016
861.238,59.49904123000062
861.356,55.195775955373044
861.473,50.519234512251224
861.591,48.42710865354504
861.708,49.4016494615055
861.826,56.315584208860116
861.943,64.58365419242998
862.061,55.00537514848244
862.178,39.25262147699813
862.296,23.628165489331508
862.414,23.350918043772182
862.531,20.85142637553037
862.649,20.325322890398446
862.766,34.52523609362224
862.884,42.13568236479282
863.001,43.4719433416153
863.119,41.87338898302961
863.236,42.519992334125014
863.354,52.46887563117542
863.471,51.76607061102507
863.589,53.45720498481425
863.706,70.03838264864663
863.824,84.28016637308508
863.941,96.74359511916839
864.059,101.30139615962378
864.176,103.47737901826083
864.294,105.60227962581557
864.411,96.72371702990712
864.529,91.98627997512426
864.646,94.68607235757082
864.764,99.10361365776635
864.881,100.97743201423883
864.999,106.46510318456419
865.116,123.47658387869909
865.233,147.16944985421932
865.351,168.1203244877482
865.468,186.79154544162344
865.586,203.91904345177562
865.703,204.88983150521784
865.821,198.34287064091114
865.938,190.60197038266526
866.056,186.31734718069652
866.173,186.37125211725623
866.29,185.99571982437885
866.408,192.501572812887
866.525,198.752014545984
866.643,198.06652554315048
866.76,199.1446729039534
866.878,198.19684623878237
866.995,189.04209316668494
867.112,182.24058684783432
867.23,173.2425437324469
867.347,175.89471706727593
867.465,177.93303758825206
867.582,188.86919360706372
867.699,196.74560936613517
867.817,209.93371343689498
867.934,208.16857075440802
868.051,221.2778869463799
868.169,228.003653354802
868.286,241.3389435727479
868.404,252.80410392056376
868.521,276.19134219045736
868.638,291.9318272135978
868.756,318.92339448782036
868.873,332.0569531040343
868.99,373.8918104215468
869.108,404.537057349449
869.225,437.16065925570626
869.342,459.8292828069852
869.46,492.26500592536354
869.577,507.86523120824404
869.694,529.7529023785704
869.812,538.0829977913212
869.929,560.17846116944
870.046,566.5379938116278
870.164,570.3018554581447
870.281,562.6388772778216
870.398,561.8209207425203
870.516,545.5025313067862
870.633,540.5806786675889
870.75,522.7575273270929
870.867,508.4114322636534
870.985,488.5042982391749
871.102,466.35041096794316
871.219,444.96708646727404
871.337,423.15951954236255
871.454,408.9632080287062
871.571,391.5279354760889
871.688,372.85023868104724
871.806,353.30674102020475
871.923,331.82558102170003
872.04,301.5452868240611
872.157,272.26585842728787
872.275,242.17690622099065
872.392,224.48016180690098
872.509,198.36956457895855
872.626,191.94381583586437
872.744,173.1007510754541
872.861,155.19101964837716
872.978,136.01029255030477
873.095,123.13432735699428
873.213,109.2791413844632
873.33,100.5347779227547
873.447,86.87959195022384
873.564,76.57938433267137
873.681,53.172693923687234
873.799,34.789084394416705
873.916,23.502300976877468
874.033,17.152101790583558
874.15,11.948688511073435
874.267,10.530555396483212
874.385,8.270807028791628
874.502,10.563352753350134
874.619,9.723339579315702
874.736,15.879882882221082
874.853,13.848536681476366
874.97,12.850310617128665
875.088,12.003499292701433
875.205,2.616840429282945
875.322,4.2972485724590275
875.439,5.393326956391197
875.556,2.9647313985661583
875.673,2.183919987295909
875.791,-2.0447651246104246
875.908,2.6494010192267807
876.025,-1.3917958630905376
876.142,-4.9778990274283075
876.259,2.7435461602923494
876.376,0.3438502676425599
876.493,-3.553801441078929
876.61,-8.335494993302188
876.728,0.4869271759778422
876.845,6.066132915154508
876.962,-0.3251052921739861
877.079,4.996230861599308
877.196,7.9336700812805665
877.313,0.7812141020990184
877.43,-6.433910476793061
877.547,-8.128966913536491
877.664,-0.9076146040624424
877.781,-8.57152999946791
877.898,-10.251450260034602
878.016,-9.149848640889772
878.133,-6.638878792984327
878.25,-7.914416747502477
878.367,-7.498031572656487
878.484,3.82065417890456
878.601,8.725074381410757
878.718,4.557527027835561
878.835,6.499128488684474
878.952,0.5950001266125975
879.069,-0.8382061557566716
879.186,-5.292335533923374
879.303,-7.406493941628666
879.42,1.1895216518064786
879.537,-5.27878044733157
879.654,-4.747408912215697
879.771,-6.907119109130622
879.888,-10.75750333025549
880.005,-15.451022854957731
880.122,-21.14636645550741
880.239,-27.84353413190454
880.356,-35.54252588414913
