wavelength_nm,intensity
792.446,2273.983537060443
792.565,2231.0999006968063
792.684,2194.886827103733
792.803,2165.3443162812223
792.922,2142.472368229272
793.041,2117.658515415419
793.16,2108.0299439868477
793.279,2117.6221517790555
793.398,2133.1797275366316
793.518,2162.480160437064
793.637,2207.392714549618
793.756,2250.1338400907434
793.875,2264.1979093548125
793.994,2264.209164766068
794.113,2253.8559180128213
794.232,2231.651589008493
794.351,2210.9199872768913
794.47,2190.4290781859822
794.589,2184.3702037271078
794.708,2179.9044028613066
794.827,2172.984922341826
794.946,2168.7702037271074
795.066,2167.042065198969
795.185,2172.363277320181
795.304,2180.833407190311
795.423,2176.3710695279733
795.542,2177.894013250917
795.661,2166.798775155679
795.78,2159.1927145496184
795.899,2149.9442297011337
796.018,2136.114792471696
796.137,2130.3269136838176
796.256,2126.0619786188827
796.375,2126.193580350484
796.494,2117.43773619464
796.613,2112.412627969532
796.732,2107.2195543764583
796.851,2103.8888184457223
796.97,2094.921718878623
797.089,2093.4749656318695
797.208,2099.2360045929086
797.327,2113.803969960874
797.446,2116.8299439868483
797.565,2142.118255675159
797.684,2153.6429309998343
797.803,2158.3494245063284
797.922,2157.781459138363
798.041,2148.4334071903104
798.16,2138.3347058916097
798.279,2120.489684246588
798.398,2105.646394203298
798.517,2107.8212859781897
798.636,2108.4585154154192
798.755,2124.2472600041638
798.874,2131.332108489012
798.993,2136.4368703937744
799.112,2135.256783813688
799.231,2127.6541864110904
799.35,2128.8394677963715
799.469,2127.321718878623
799.588,2126.8550522119563
799.707,2138.129511086415
799.826,2136.381459138363
799.945,2130.841199398103
800.064,2127.016091172995
800.183,2136.410030566934
800.302,2142.4221517790556
800.421,2146.9788617357653
800.54,2157.2126279695317
800.659,2171.8013725582764
800.778,2186.658515415419
800.897,2187.9979093548127
801.016,2183.997043553947
801.135,2179.2957448526486
801.254,2168.0827578396616
801.373,2172.698342255246
801.492,2183.983190740095
801.611,2198.4663076232114
801.729,2216.7018054587093
801.848,2219.7009396578433
801.967,2207.8238833807873
802.086,2184.9996409565447
802.205,2157.2429309998347
802.324,2132.536437493341
802.443,2102.3840565409605
802.562,2079.725182082086
802.681,2060.273234030138
802.8,2048.565008921913
802.919,2029.4238833807874
803.038,2017.982324939229
803.157,2011.4290781859822
803.276,2004.977057983962
803.394,2000.7166683735727
803.513,1991.1228011297053
803.632,1982.9028155597196
803.751,1982.2714302783343
803.87,1981.1282123851165
803.989,1984.6541142610183
804.108,1986.4067116636156
804.227,1995.706350913255
804.346,2002.5087318656358
804.465,2001.4966106535148
804.583,2004.5173898742937
804.702,2013.873234030138
804.821,2023.1658747227784
804.94,2027.2420651989692
805.059,2031.8472600041637
805.178,2040.3442297011336
805.297,2041.5745327314366
805.416,2047.3044028613067
805.535,2055.0446626015664
805.653,2061.981459138363
805.772,2072.8100305669345
805.891,2089.562411519315
806.01,2113.834272991177
806.129,2145.512195069099
806.248,2182.1693379262415
806.367,2220.929511086415
806.485,2247.6186885755924
806.604,2269.276697233601
806.723,2286.539900696804
806.842,2288.545095501999
806.961,2286.49747645438
807.08,2276.8463942032977
807.198,2264.7953119522153
807.317,2246.100939657843
807.436,2226.287952644856
807.555,2220.475831432735
807.674,2221.842065198969
807.793,2233.988385545289
807.912,2258.868905025809
808.03,2296.986653943557
808.149,2335.314792471696
808.268,2372.0940132509168
808.387,2396.236004592908
808.506,2406.8628444197475
808.624,2399.258515415419
808.743,2376.505268662172
808.862,2352.858515415419
808.981,2322.132108489012
809.1,2300.1494245063277
809.219,2288.8039699608735
809.337,2277.552021908926
809.456,2267.6005067574106
809.575,2272.259381216285
809.694,2279.6524548093585
809.812,2290.5953119522155
809.931,2299.4697708266744
810.05,2319.788385545289
810.169,2344.5866539435574
810.288,2354.636870393774
810.406,2361.09747645438
810.525,2366.825614982519
810.644,2367.845528402432
810.763,2369.2212859781894
810.882,2372.536437493341
811.0,2374.62734658425
811.119,2393.4888184457213
811.238,2418.082757839661
811.357,2445.8325413894445
811.475,2456.3442297011325
811.594,2463.5407664976697
811.713,2470.6931474500507
811.832,2473.6420651989683
811.95,2472.7182556751586
812.069,2477.0602470171502
812.188,2485.0810262379296
812.307,2491.8022383591415
812.425,2477.4957448526484
812.544,2458.83340719031
812.663,2450.6689050258083
812.782,2443.1018054587084
812.9,2437.9338400907436
813.019,2448.3243162812196
813.138,2461.873234030137
813.257,2483.8057015626046
813.375,2494.304402861306
813.494,2509.6282123851156
813.613,2516.188385545289
813.731,2521.411762168665
813.85,2523.7944461513493
813.969,2544.197909354813
814.088,2554.0126279695314
814.206,2570.257649614553
814.325,2589.9892513461546
814.444,2605.0429309998344
814.562,2614.1139266708296
814.681,2619.9606799175826
814.8,2619.0186885755916
814.918,2606.0844894413926
815.037,2591.9390348959378
815.156,2585.4247491816523
815.274,2584.197043553947
815.393,2579.5762643331673
815.512,2589.264576021479
815.631,2587.7416322985355
815.749,2586.8074331643365
815.868,2583.2334071903106
815.987,2576.368472125375
816.105,2562.386653943557
816.224,2552.492281649185
816.343,2536.2160911729943
816.461,2520.560679917583
816.58,2488.53037688728
816.698,2455.8117621686656
816.817,2434.9511561080594
816.936,2403.642065198969
817.055,2377.7987751556784
817.173,2362.8420651989686
817.292,2356.2169569738608
817.41,2351.6325413894447
817.529,2345.9442297011333
817.648,2344.00050675741
817.766,2347.190117147021
817.885,2347.162411519315
818.004,2347.7658747227783
818.122,2353.1953119522154
818.241,2364.5364374933406
818.359,2370.9792946361977
818.478,2378.5570002639033
818.597,2356.1145760214795
818.715,2367.7440132509164
818.834,2376.4785009854045
818.953,2520.232541389445
819.071,2685.1425341744375
819.19,2896.3035731354767
819.308,3065.3394136838165
819.427,3157.1494245063277
819.546,3100.844536338939
819.664,2966.4080825149854
819.783,2758.575127969531
819.901,2619.687158994062
820.02,2474.0878985323016
820.138,2394.155124362028
820.257,2345.065712385116
820.376,2321.471502428406
820.494,2289.7598141167173
820.613,2273.286221043125
820.731,2281.623883380787
820.85,2294.840333597237
820.969,2329.6914158483196
821.087,2376.462844419748
821.206,2418.603104160007
821.324,2444.261978618882
821.443,2441.8550522119554
821.561,2426.3710695279733
821.68,2398.4429309998345
821.798,2351.2351387920426
821.917,2316.1165240734276
822.035,2300.7918487487523
822.154,2285.649857406761
822.273,2291.8844894413933
822.391,2297.0602470171507
822.51,2306.223017579921
822.628,2307.630809787713
822.747,2304.448125805029
822.865,2295.4914158483193
822.984,2285.79444615135
823.102,2277.4256149825187
823.221,2285.3156582725614
823.339,2293.4559180128217
823.458,2301.9693379262417
823.576,2311.0299439868477
823.695,2318.345961302865
823.813,2311.519987276891
823.932,2298.696610653514
824.05,2281.015225372129
824.169,2286.604835761739
824.287,2285.1217188786222
824.406,2285.623017579921
824.524,2287.3944461513493
824.643,2289.3087318656353
824.761,2286.0316755885797
824.88,2278.3710695279733
824.998,2273.810030566934
825.117,2285.593580350484
825.235,2283.3165240734274
825.354,2280.1892513461553
825.472,2271.022151779055
825.591,2265.935571692475
825.709,2262.3407664976703
825.828,2261.423017579921
825.946,2262.2212859781894
826.064,2267.49141584832
826.183,2266.171069527973
826.301,2271.269770826674
826.42,2265.202238359142
826.538,2266.275831432735
826.657,2268.438601995506
826.775,2268.0784288353325
826.894,2256.1208530777567
827.012,2241.976264333168
827.13,2227.1243162812198
827.249,2221.7918487487523
827.367,2204.4351387920424
827.486,2203.7753985323025
827.604,2208.6567838136875
827.723,2218.611762168666
827.841,2226.6290781859816
827.959,2251.0334071903108
828.078,2276.744229701133
828.196,2304.428212385116
828.315,2319.2126279695312
828.433,2323.1658747227784
828.552,2309.077563034467
828.67,2279.439467796371
828.788,2238.462844419748
828.907,2201.793580350484
829.025,2156.4663076232114
829.143,2110.3243162812205
829.262,2078.9572167141205
829.38,2054.242065198969
829.499,2039.5312426881464
829.617,2031.1225846794887
829.735,2032.3364374933415
829.854,2041.385788142692
829.972,2052.3650089219127
830.091,2067.2403335972376
830.209,2100.1044028613064
830.327,2129.8941575510617
830.446,2156.532685689589
830.564,2167.0892513461554
830.682,2178.675542832447
830.801,2176.0677506246548
830.919,2191.614059697724
831.037,2180.0415766829874
831.156,2169.9615314030093
831.274,2034.9362765237158
831.392,1895.941337594189
831.511,1810.9110738853074
831.629,1804.233987123801
831.747,1854.7267175645384
831.866,1975.114130570614
831.984,2096.276084676012
832.102,2203.414720440418
832.221,2173.247865193868
832.339,2154.182264056083
832.457,2152.0004458742646
832.576,2140.8948181686364
832.694,2132.7935194673373
832.812,2121.915597389415
832.93,2109.54330301712
833.049,2098.7597532335694
833.167,2083.045467519283
833.285,2082.6974155712305
833.404,2084.716463190278
833.522,2082.1528268266416
833.64,2099.185727259541
833.759,2125.242004315818
833.877,2149.6749047487183
833.995,2179.623822497635
834.113,2202.8168960907087
834.232,2222.573606047418
834.35,2240.2203592941705
834.468,2246.0792337530447
834.586,2254.4688441426547
834.705,2260.119060592871
834.823,2246.695683969494
834.941,2227.442004315814
835.059,2208.4653809391903
835.178,2193.9173289911378
835.296,2190.1008787746878
835.414,2182.15802163183
835.532,2191.075770549579
835.651,2205.154558428366
835.769,2215.063649337457
835.887,2228.2004458742526
836.005,2248.127718601525
836.124,2269.639406913213
836.242,2288.7095367833426
836.36,2309.2497965236025
836.478,2328.306073579879
836.596,2348.5034761772813
836.715,2369.112134185939
836.833,2385.1917878655927
836.951,2393.238541112346
837.069,2398.7865930603975
837.188,2403.898281372086
837.306,2413.083562757367
837.424,2415.461051934856
837.542,2419.299147172951
837.66,2435.1043419781454
837.779,2442.8731731469766
837.897,2443.094818168621
838.015,2435.8471991210017
838.133,2429.347632021434
838.251,2428.59178786559
838.369,2425.7943852681874
838.487,2413.7173289911307
838.606,2418.785727259529
838.724,2416.7233895971913
838.842,2416.100012973814
838.96,2408.052393926195
839.078,2408.3519610257617
839.196,2416.6783679521677
839.315,2423.641138514938
839.433,2422.148497822297
839.551,2428.488757562556
839.669,2426.799580073379
839.787,2428.0246882984866
839.905,2413.4922207660193
840.023,2405.254125527924
840.142,2400.6965497703486
840.26,2391.640272714071
840.378,2384.557155830954
840.496,2381.181398255196
840.614,2387.4203592941576
840.732,2392.5770692508677
840.85,2383.358887432686
840.968,2378.6575887313875
841.087,2378.517328991128
841.205,2383.9909220647214
841.323,2399.3675454413446
841.441,2415.88183115563
841.559,2438.199580073379
841.677,2458.0402727140713
841.795,2469.707805181604
841.913,2486.5147315885306
842.031,2507.8246882984868
842.149,2536.9433030171017
842.267,2554.3268528006515
842.385,2577.012567086366
842.504,2583.2705757443746
842.622,2581.8316147054134
842.74,2573.362350636149
842.858,2575.1459004196995
842.976,2574.173606047405
843.094,2572.303476177275
843.212,2568.1580216318207
843.33,2573.609969683769
843.448,2569.444601718401
843.566,2559.049796523596
843.684,2558.986593060393
843.802,2560.0619177357175
843.92,2562.7476320214314
844.038,2570.109536783336
844.156,2579.274904748703
844.274,2592.753692627491
844.392,2599.4636493374474
844.51,2596.0982813720793
844.628,2595.18053245433
844.746,2573.5813982551963
844.864,2540.3476320214295
844.982,2499.932913406711
845.1,2458.6662467400447
845.218,2418.772740246538
845.336,2377.3528268266246
845.454,2336.897415571213
845.572,2308.771008644806
845.69,2274.491354965152
845.808,2250.4151644889616
845.926,2226.4082380820346
846.044,2207.9649480387443
846.162,2187.121657995454
846.28,2158.6558571296523
846.398,2127.4982813720762
846.516,2100.1320476058418
846.634,2067.587458861253
846.752,2043.931181804975
846.87,2023.0238224976154
846.988,2011.5225237963164
847.106,2000.9363766101685
847.224,1984.010835484627
847.342,1975.488757562549
847.46,1976.4896233634145
847.578,1964.6549913287818
847.696,1965.5078051815954
847.814,1971.359753233543
847.932,1979.9822640560533
848.05,1984.3900562638448
848.168,1990.3294502032386
848.285,2007.9640822378701
848.403,2028.7259869997745
848.521,2034.6229566967436
848.639,2047.031614705401
848.757,2056.759753233539
848.875,2069.8047748785593
848.993,2076.0047748785587
849.111,2083.16927704306
849.229,2102.092220766003
849.347,2108.6376753114564
849.465,2104.6290173027974
849.582,2096.9935194672985
849.7,2091.8913549651334
849.818,2096.8013116750894
849.936,2097.845467519244
850.054,2106.804774878551
850.172,2121.021225095001
850.29,2124.5831298569046
850.408,2123.3199263937004
850.525,2124.6567229304956
850.643,2129.538974012746
850.761,2140.2558571296286
850.879,2143.8766363504064
850.997,2154.4082380820073
851.115,2162.0446017183704
851.233,2161.989190462958
851.35,2171.751095224862
851.468,2180.9216579954236
851.586,2208.2714415452065
851.704,2245.6409220646856
851.822,2289.389623363386
851.94,2363.4946017183634
852.057,2439.8078051815655
852.175,2505.2305324542926
852.293,2577.996549770309
852.411,2627.4071558309142
852.529,2683.56711254087
852.647,2728.936160159917
852.764,2768.725986999743
852.882,2817.54503461879
853.0,2845.697415571171
853.118,2852.100878774633
853.236,2842.9207921945463
853.353,2807.092220765975
853.471,2780.701744575498
853.589,2736.831614705368
853.707,2693.5744718482247
853.824,2657.7554242291767
853.942,2621.4368095105615
854.06,2576.810835484587
854.178,2531.6177618915135
854.296,2480.832480506232
854.413,2429.766679640431
854.531,2369.791787865539
854.649,2305.2056406793918
854.767,2250.7389740127246
854.884,2197.7987142724646
855.002,2138.7441688179188
855.12,2082.915597389347
855.238,2032.2194934932425
855.355,1984.8549913287397
855.473,1939.8108354845835
855.591,1898.4913549651023
855.708,1866.8523939261408
855.826,1841.0168960906426
855.944,1811.574471848218
856.062,1786.8679783417244
856.179,1778.1580216317675
856.297,1771.5372424109878
856.415,1767.1753376490828
856.532,1759.8004458741907
856.65,1750.3649480386928
856.768,1743.4047748785192
856.886,1730.684428558173
857.003,1720.280099553844
857.121,1719.6117012854456
857.239,1715.478367952112
857.356,1716.2411385148823
857.474,1709.434212107956
857.592,1711.631614705358
857.709,1718.7026103763533
857.827,1723.294818168561
857.945,1729.4688441425865
858.062,1737.5121341858762
858.18,1740.1987142724558
858.298,1738.37706925081
858.415,1733.581398255139
858.533,1732.2636493373896
858.651,1739.7718744456142
858.768,1739.192653666393
858.886,1735.5000129737518
859.003,1730.6039090776476
859.121,1727.6913549650933
859.239,1722.6757705495086
859.356,1714.1017445754824
859.474,1717.399580073318
859.592,1719.5978484715863
859.709,1716.808238081976
859.827,1710.1363766101144
859.944,1704.7926536663913
860.062,1708.0956839694215
860.18,1710.8142986880362
860.297,1717.6255540992915
860.415,1735.3381082118453
860.532,1738.8679783417151
860.65,1743.7935194672564
860.768,1749.7450346187711
860.885,1754.527718601455
861.003,1762.6558571295934
861.12,1773.5935194672556
861.238,1786.9095367832729
861.356,1791.3363766101124
861.473,1790.9883246620607
861.591,1784.8082380819737
861.708,1784.5528268265625
861.826,1778.7389740127098
861.943,1771.3681226418582
862.061,1792.8288008525365
862.178,1815.1140100877458
862.296,1818.3947460184818
862.414,1822.0718744456103
862.531,1813.1116291353649
862.649,1796.9962611699966
862.766,1778.6573722811077
862.884,1754.8629278366632
863.001,1757.6850779088134
863.119,1766.8775021512374
863.236,1768.18832466206
863.354,1772.5562900300254
863.471,1774.5285844023201
863.589,1776.4809653547009
863.706,1793.8342121079475
863.824,1800.6142986880338
863.941,1812.782264055999
864.059,1828.1398398135743
864.176,1833.9389740127078
864.294,1832.7883246620581
864.411,1821.1710086447415
864.529,1806.8212250949573
864.646,1803.4844285581603
864.764,1803.071441545173
864.881,1803.1675454412766
864.999,1812.608238081969
865.116,1828.5398398135703
865.233,1861.8705757443058
865.351,1889.7034761772059
865.468,1915.1614848352142
865.586,1941.2826969564258
865.703,1956.7407056144339
865.821,1953.1562900300178
865.938,1946.961484835212
866.056,1933.1883246620514
866.173,1933.3034761772026
866.29,1931.1545584282844
866.408,1933.3095367832625
866.525,1940.5017445754697
866.643,1945.8835627572876
866.76,1940.8047748784988
866.878,1932.9398398135636
866.995,1917.3389740126975
867.112,1916.6342121079351
867.23,1920.5606190343415
867.347,1930.8168960906178
867.465,1945.9450346187557
867.582,1957.288757562478
867.699,1956.6446017183216
867.817,1955.2385411122605
867.934,1955.4151644888834
868.051,1971.2792337529522
868.169,1991.581398255116
868.286,2017.382264055981
868.404,2048.4446017183177
868.521,2073.490489164204
868.638,2096.500878774593
868.756,2119.999580073293
868.873,2147.2593203330325
868.99,2189.9649480386597
869.108,2227.1865930603035
869.225,2274.4705757442853
869.342,2320.0013116750206
869.46,2359.079233752942
869.577,2394.747632021339
869.694,2425.6151644888705
869.812,2439.2454675191725
869.929,2455.8792337529376
870.046,2461.1078051815084
870.164,2459.7329134066154
870.281,2446.1285844022855
870.398,2421.153692627393
870.516,2399.568411242111
870.633,2375.2688441425425
870.75,2334.633346307044
870.867,2303.68356275726
870.985,2281.6333463070423
871.102,2251.403043276738
871.219,2225.7961168698102
871.337,2191.3372424109343
871.454,2165.743303016993
871.571,2141.9753376490266
871.688,2108.1017445754323
871.806,2074.1285844022714
871.923,2051.3614848351704
872.04,2021.3917878654725
872.157,1991.7285844022679
872.275,1956.9095367832192
872.392,1936.498281371963
872.509,1922.637675311356
872.626,1901.2861601598397
872.744,1880.2775021511811
872.861,1863.2679783416563
872.978,1839.2662467399236
873.095,1810.956290029966
873.213,1783.4428701165455
873.33,1762.6948181684925
873.447,1741.7805324542057
873.564,1721.0194934931656
873.681,1710.617761891433
873.799,1701.100878774549
873.916,1683.8437359174054
874.033,1678.2004458741144
874.15,1669.7173289909965
874.267,1654.984861458528
874.385,1645.620359294025
874.502,1642.73464500831
874.619,1642.215164488829
874.736,1636.044601718266
874.853,1630.5891904628543
874.97,1638.4922207658838
875.088,1640.6740389477013
875.205,1639.4852943589563
875.322,1641.1493636230248
875.439,1642.033346307007
875.556,1634.8688441425043
875.673,1624.6203592940187
875.791,1618.4437359173946
875.908,1618.6324805061386
876.025,1618.2238224974801
876.142,1620.374471848129
876.259,1627.754558428215
876.376,1627.4965497702058
876.493,1626.1216579953134
876.61,1625.9207921944471
876.728,1623.6212250948795
876.845,1625.224688298342
876.962,1621.5268528005063
877.079,1623.0974155710687
877.196,1625.4558571295097
877.313,1619.1190605927127
877.43,1618.5052077788594
877.547,1614.2108354844868
877.664,1608.4212250948758
877.781,1604.2982813719314
877.898,1607.8307489043982
878.016,1610.6974155710645
878.133,1616.1649480385965
878.25,1621.573606047254
878.367,1628.3961168697645
878.484,1622.3164631901104
878.601,1619.7251211987677
878.718,1615.3121341857802
878.835,1608.5138657875113
878.952,1599.1078051814504
879.069,1596.738974012619
879.186,1587.168411242056
879.303,1585.4368095104537
879.42,1583.8272857009295
879.537,1584.0904891641326
879.654,1585.904341977985
879.771,1587.825554099197
879.888,1585.2705757442181
880.005,1583.905467519112
880.122,1581.8234761771205
880.239,1579.0246017182455
880.356,1575.5088441424878
