wavelength_nm,intensity
792.446,0.2537922872707823
792.565,0.21435923175432237
792.684,0.1819830596232679
792.803,0.15666377087761896
792.922,0.13840136551737542
793.041,0.1234114760152607
793.16,0.11746437246687817
793.279,0.12352044286581518
793.398,0.14014044719937913
793.518,0.161136677262594
793.637,0.18651278966118304
793.756,0.2100935086496295
793.875,0.2308696110483015
793.994,0.232292030674667
794.113,0.22006726642051522
794.232,0.20295654559888376
794.351,0.18769314198866585
794.47,0.17480214417172785
794.589,0.16841697925769333
794.708,0.1653242221369223
794.827,0.16289842990008202
794.946,0.15778283849317892
795.066,0.15691476029446638
795.185,0.16417019737064734
795.304,0.16894279916070454
795.423,0.16556994604152847
795.542,0.16301324731979389
795.661,0.15372693142488966
795.78,0.14617896589084434
795.899,0.13497805123921777
796.018,0.12811313965428572
796.137,0.12978347714869126
796.256,0.12698471112807394
796.375,0.1233317620104927
796.494,0.11988212017112719
796.613,0.12036113552088011
796.732,0.12375592827439605
796.851,0.11743544424135478
796.97,0.10902170267878526
797.089,0.10758207248109349
797.208,0.11426763020725778
797.327,0.12411001613326073
797.446,0.13509859229962068
797.565,0.14859802688499268
797.684,0.1536599930109031
797.803,0.15246363740106844
797.922,0.14528946275477542
798.041,0.14162636092399955
798.16,0.1406654907227458
798.279,0.14001104408110499
798.398,0.1352122005126708
798.517,0.13287059599029724
798.636,0.12373721199745782
798.755,0.12710576297259674
798.874,0.1313884653785618
798.993,0.12919605036969903
799.112,0.1309834850300809
799.231,0.13846791140737147
799.35,0.13202140130001627
799.469,0.13188034210192756
799.588,0.1261629591757994
799.707,0.12533153281715093
799.826,0.12321151860160999
799.945,0.11472754778522978
800.064,0.11684042035498624
800.183,0.12874495173060777
800.302,0.13394253688854402
800.421,0.14886961855504902
800.54,0.16728729604502057
800.659,0.17909456170840193
800.778,0.18790121671523957
800.897,0.1852700090195804
801.016,0.17777990363879398
801.135,0.17177438018166913
801.254,0.16037024403465736
801.373,0.15789553906395531
801.492,0.16419010593888242
801.611,0.17595495497587305
801.729,0.18642097765994597
801.848,0.18875324657310028
801.967,0.18743841693783048
802.086,0.1758858225984526
802.205,0.15854409007793907
802.324,0.14156741092357106
802.443,0.11650112444685189
802.562,0.098460552574751
802.681,0.07717480343562044
802.8,0.06366389634192432
802.919,0.058061593565777427
803.038,0.04598658789149193
803.157,0.04048481169122088
803.276,0.034895398298529105
803.394,0.022324022286368234
803.513,0.015511462441204948
803.632,0.012238325070060866
803.751,0.01838783971356009
803.87,0.02289656016667093
803.989,0.027779028137309553
804.108,0.03491649192162753
804.227,0.03551860177535354
804.346,0.029593952138157936
804.465,0.03335024532405633
804.583,0.03626610597483844
804.702,0.04301098222981374
804.821,0.04275613353418497
804.94,0.04534052737485589
805.059,0.04614097955467583
805.178,0.04242595838633112
805.297,0.03763709555369163
805.416,0.04785612407367548
805.535,0.05421161675889073
805.653,0.06443626180682131
805.772,0.07492777183768197
805.891,0.0863574231490915
806.01,0.09785496919054397
806.129,0.123464477391045
806.248,0.1531943299387265
806.367,0.19197848080480268
806.485,0.21536531379109364
806.604,0.24027768268514718
806.723,0.25634399101338223
806.842,0.25927138365663926
806.961,0.2535677241506083
807.08,0.25032934822322933
807.198,0.23812936298917575
807.317,0.2238465751351279
807.436,0.2060783107056261
807.555,0.20093045526953757
807.674,0.20048718875705263
807.793,0.20750486056239825
807.912,0.23041706612580398
808.03,0.2578956409164725
808.149,0.28904471653219405
808.268,0.32200527462324063
808.387,0.3447053970546945
808.506,0.35771039507137853
808.624,0.35755088116302136
808.743,0.34512199241068786
808.862,0.3297751322911572
808.981,0.31031385941176404
809.1,0.2925960561412425
809.219,0.27730038850183786
809.337,0.2580226772297545
809.456,0.2406829669910226
809.575,0.2290278160097401
809.694,0.2321987385941684
809.812,0.2298416046461048
809.931,0.23983136558335155
810.05,0.2563854651150747
810.169,0.2757032272524714
810.288,0.2844658313089772
810.406,0.2910659187407208
810.525,0.29933268706114674
810.644,0.3062304221987676
810.763,0.3065491923190191
810.882,0.3166874114486329
811.0,0.3309173723826245
811.119,0.3416845276966466
811.238,0.3528816998437292
811.357,0.359775778375627
811.475,0.3637628553574976
811.594,0.363411003988095
811.713,0.35944203823719956
811.832,0.36304955954499124
811.95,0.366889640976785
812.069,0.36463562331011945
812.188,0.37456760987693855
812.307,0.3820628343897473
812.425,0.3971820818356461
812.544,0.4012759317046368
812.663,0.40377038223025424
812.782,0.40924204113578605
812.9,0.4042806725915854
813.019,0.40912705191843224
813.138,0.42015602020224246
813.257,0.437570153400087
813.375,0.45102783920531603
813.494,0.44771925644804866
813.613,0.4532296753742473
813.731,0.45117311441663954
813.85,0.450990198231653
813.969,0.46078469642327546
814.088,0.4638386076245584
814.206,0.468239612374307
814.325,0.4691032167473308
814.444,0.4595754789758676
814.562,0.46280344460958
814.681,0.4644832033800452
814.8,0.4650681743969528
814.918,0.4566783723265819
815.037,0.44826516797958177
815.156,0.4427553085768856
815.274,0.43987528001039017
815.393,0.4302890365473541
815.512,0.4365987894846677
815.631,0.4420572846095958
815.749,0.4418304891559298
815.868,0.4430392771092333
815.987,0.44240879238371467
816.105,0.4376543877234531
816.224,0.4352146144860435
816.343,0.4242586065190573
816.461,0.4135190696108908
816.58,0.39312901887777874
816.698,0.3707570878426356
816.817,0.3587567532810736
816.936,0.33845811769104417
817.055,0.32362537633621036
817.173,0.3143345866156169
817.292,0.30820237291881386
817.41,0.30404106970687195
817.529,0.30207665521349136
817.648,0.3000668988091417
817.766,0.30467925536969664
817.885,0.30381401655674145
818.004,0.30792907473892694
818.122,0.3145927871102558
818.241,0.32228034908410996
818.359,0.33408307666736553
818.478,0.34216347639469424
818.597,0.32431134351474755
818.715,0.33303696560859625
818.834,0.3400489765846095
818.953,0.44184759989239164
819.071,0.5595187556073333
819.19,0.7033473636224639
819.308,0.8224990156319236
819.427,0.8849027999762538
819.546,0.8412865104785108
819.664,0.7414920476723525
819.783,0.5937461147799372
819.901,0.49887915701825375
820.02,0.39390384224277947
820.138,0.3408376122246076
820.257,0.31044080076191294
820.376,0.29556217884857083
820.494,0.2710796549899366
820.613,0.2592387484379109
820.731,0.2636295146916343
820.85,0.2712205422743939
820.969,0.2881658986185114
821.087,0.31349073263815364
821.206,0.34708315219818753
821.324,0.3636738177871446
821.443,0.36863720849713755
821.561,0.36444957772398845
821.68,0.3429742464121999
821.798,0.3057009157334463
821.917,0.27143916552840636
822.035,0.24622020127709865
822.154,0.23724826757557788
822.273,0.2303313462905543
822.391,0.2370499077477336
822.51,0.24794285029863755
822.628,0.25164398071294614
822.747,0.25102812241032124
822.865,0.2529345907356318
822.984,0.2578007157333848
823.102,0.2592193928552061
823.221,0.25994843413761193
823.339,0.262734681799949
823.458,0.2663019804447839
823.576,0.26311918492439873
823.695,0.2629018966456136
823.813,0.2622172941553903
823.932,0.26641718559035726
824.05,0.26220468989828993
824.169,0.2611975747832713
824.287,0.2586627297970561
824.406,0.2584863955023724
824.524,0.2536018156783616
824.643,0.2551053260529639
824.761,0.24959839193484668
824.88,0.2486980497069486
824.998,0.2471453690180129
825.117,0.24772522078690845
825.235,0.24585368407890065
825.354,0.24777770411168293
825.472,0.24913568157849764
825.591,0.25065601233942714
825.709,0.24917207583808965
825.828,0.24401836983284386
825.946,0.24023881625841587
826.064,0.23439766837718895
826.183,0.23004768430992567
826.301,0.23478509678621884
826.42,0.23563261209406045
826.538,0.23426203037014542
826.657,0.23812478275742388
826.775,0.23715642766307243
826.894,0.229991588510009
827.012,0.2190253420469982
827.13,0.21263862859185406
827.249,0.20706295028613889
827.367,0.19878869695662493
827.486,0.19387486428682799
827.604,0.20404891815253062
827.723,0.2109327581884039
827.841,0.2174831157823119
827.959,0.22992499651760817
828.078,0.24708682392054598
828.196,0.26937521254755664
828.315,0.2863900444004176
828.433,0.2990549780848353
828.552,0.29583488518607326
828.67,0.2680263127615219
828.788,0.23059867332124548
828.907,0.19046310192929677
829.025,0.15575719699487994
829.143,0.13248777237001286
829.262,0.11380065903151937
829.38,0.10378388054210623
829.499,0.09172416093102956
829.617,0.07806318018482811
829.735,0.07341625731521903
829.854,0.07816779314209421
829.972,0.08712511128998945
830.091,0.1005229056805314
830.209,0.1141852862861426
830.327,0.13226496606353685
830.446,0.1472168142304147
830.564,0.1567515746006517
830.682,0.17128587985590038
830.801,0.18333797454607315
830.919,0.18295557571372162
831.037,0.17105350618944298
831.156,0.15311236377375498
831.274,0.14110633361882413
831.392,0.1293366810031461
831.511,0.13254601542783792
831.629,0.13795605598634175
831.747,0.1483629237770029
831.866,0.1550636331277231
831.984,0.16105432962574923
832.102,0.16065620460401758
832.221,0.15215448082374455
832.339,0.14765223848665776
832.457,0.14842302669042193
832.576,0.14589010244134004
832.694,0.14077562903182592
832.812,0.13141533455833035
832.93,0.14061495670000554
833.049,0.1334368147909144
833.167,0.1170018673217462
833.285,0.11428167232102787
833.404,0.11389338005002059
833.522,0.11951346925972177
833.64,0.12618440474614093
833.759,0.14071258514637952
833.877,0.17376519747460065
833.995,0.1880469758309159
834.113,0.20861069696619122
834.232,0.22803940768495276
834.35,0.2405366565946181
834.468,0.24210211703389187
834.586,0.2387640691982139
834.705,0.2356929535803371
834.823,0.22638293727735812
834.941,0.20747798755642782
835.059,0.19713461447604308
835.178,0.18934720879624833
835.296,0.1885907246012237
835.414,0.18827522705642952
835.532,0.19610664706315784
835.651,0.2103385897279584
835.769,0.22075157337533965
835.887,0.2359071746458468
836.005,0.25619153110386084
836.124,0.27786539773673047
836.242,0.29452898320752813
836.36,0.3091375562618285
836.478,0.3295104025783463
836.596,0.34202154658975936
836.715,0.35310734569022817
836.833,0.3653976307159537
836.951,0.3797546292964908
837.069,0.3868101175687333
837.188,0.38844578483789344
837.306,0.3897604021245475
837.424,0.40402598556200164
837.542,0.4029155419329603
837.66,0.4113532271686119
837.779,0.4165592042660071
837.897,0.41563744149228854
838.015,0.4133715104546833
838.133,0.4083207084982094
838.251,0.4103425133317512
838.369,0.42029549597914084
838.487,0.41586339171105036
838.606,0.4171312044444472
838.724,0.4139964638869853
838.842,0.41366048935014066
838.96,0.41364556479580206
839.078,0.40746706563426116
839.196,0.4143857968524525
839.315,0.4224197928162517
839.433,0.41922288996149315
839.551,0.4140733596504902
839.669,0.41576314468435605
839.787,0.418086985150643
839.905,0.4179470046805674
840.023,0.41225849068594933
840.142,0.41440681407751756
840.26,0.4101451076361328
840.378,0.4008175396256818
840.496,0.39435528786001256
840.614,0.3964019576124731
840.732,0.3876960125749844
840.85,0.38603122751829094
840.968,0.3867110580513804
841.087,0.3930798357687871
841.205,0.39681732000770364
841.323,0.4051314119699082
841.441,0.4180513645011874
841.559,0.4288651121358433
841.677,0.4334450783334096
841.795,0.43919808364701196
841.913,0.45413501989526606
842.031,0.47068744455207606
842.149,0.4850444431326139
842.267,0.5000011250517737
842.385,0.5103322007309534
842.504,0.5203283313258785
842.622,0.5271249319129123
842.74,0.5267948079452254
842.858,0.5355067386101259
842.976,0.5381274954611457
843.094,0.5359361591802964
843.212,0.5328979530139296
843.33,0.5315213084882322
843.448,0.5335489638909313
843.566,0.5348899087387938
843.684,0.5384665023258846
843.802,0.5562746053880767
843.92,0.566119352506056
844.038,0.5654601340232708
844.156,0.573327388766087
844.274,0.5802446573419886
844.392,0.5836311074314675
844.51,0.5861392408262087
844.628,0.5832180460429868
844.746,0.5786323643345168
844.864,0.5570661369681649
844.982,0.523162521891383
845.1,0.4912693086412742
845.218,0.4586564753848189
845.336,0.42384602208865785
845.454,0.3990539371532069
845.572,0.37799817194582863
845.69,0.3570652686907536
845.808,0.342772030108055
845.926,0.33394687972398607
846.044,0.3151201813655343
846.162,0.29984477848555613
846.28,0.26727948110350475
846.398,0.2486502394541118
846.516,0.23032961532776566
846.634,0.21212161465769727
846.752,0.20270263150416368
846.87,0.19547980574804663
846.988,0.1871131937216799
847.106,0.1767815217796091
847.224,0.1573807363225984
847.342,0.150365605771565
847.46,0.14695661978485444
847.578,0.14377653731642298
847.696,0.14013937913257835
847.814,0.14105396375310336
847.932,0.1467155539236225
848.05,0.14653754475402428
848.168,0.14944497949375057
848.285,0.16599447886598157
848.403,0.18272753984552254
848.521,0.2002709046533478
848.639,0.21532412096360262
848.757,0.235662595186322
848.875,0.2515897402644466
848.993,0.25473704833962163
849.111,0.2604183841810467
849.229,0.2690374370605746
849.347,0.27152655610555465
849.465,0.27470969891681785
849.582,0.2749770643243179
849.7,0.2820537609097558
849.818,0.28969211213429313
849.936,0.2897488570521307
850.054,0.3022482999252292
850.172,0.3141327017156679
850.29,0.32643249391627394
850.408,0.32834460057811654
850.525,0.3287392158647877
850.643,0.3365274879239809
850.761,0.3347859141470978
850.879,0.33101053626691274
850.997,0.33541279142632624
851.115,0.3326159212376978
851.233,0.3312919318344164
851.35,0.3302509637141187
851.468,0.3426421710578081
851.586,0.3654261831882739
851.704,0.3911223161167796
851.822,0.42692969519136736
851.94,0.47641716759798225
852.057,0.5247557344863347
852.175,0.5758038462156558
852.293,0.630731616617403
852.411,0.681296325070103
852.529,0.7250312253528146
852.647,0.7546421203686899
852.764,0.7799711300825757
852.882,0.8057740358982017
853.0,0.8262178203657524
853.118,0.8359755402675177
853.236,0.8371980110899457
853.353,0.8267741926836487
853.471,0.8090144918752581
853.589,0.77133140912287
853.707,0.7300165855660963
853.824,0.6943234276483309
853.942,0.6669336900070456
854.06,0.6373507202529223
854.178,0.6131078574971132
854.296,0.5849487700116449
854.413,0.5534000090206732
854.531,0.5148122820123404
854.649,0.4688287042680518
854.767,0.42375489002772126
854.884,0.38286569537714044
855.002,0.33717610873300524
855.12,0.2903800331969981
855.238,0.24381432382155915
855.355,0.20572023858587232
855.473,0.17638079877292148
855.591,0.1462994591380511
855.708,0.1178558678513741
855.826,0.09922384636652254
855.944,0.07957691485006523
856.062,0.06348572182966286
856.179,0.05265142202168599
856.297,0.04969511783064423
856.415,0.046145390874035325
856.532,0.0423963655928559
856.65,0.03563456054876099
856.768,0.030595383821763144
856.886,0.023057218602596248
857.003,0.015938193376707512
857.121,0.007805671804363971
857.239,0.008985596864024495
857.356,0.006367224693344963
857.474,0.012991212190973992
857.592,0.01274911451229245
857.709,0.018756867290762726
857.827,0.026274530229206224
857.945,0.031188309116430536
858.062,0.038899395451479066
858.18,0.04393245277746638
858.298,0.04414938558814217
858.415,0.046653062216478136
858.533,0.04032169571531849
858.651,0.04010761070403768
858.768,0.039112760314112316
858.886,0.038884393289788335
859.003,0.041896332867703175
859.121,0.03520486489595595
859.239,0.03621995430210557
859.356,0.03518681690367382
859.474,0.03322120896140075
859.592,0.03255834670195791
859.709,0.030514373179721752
859.827,0.030452827814948298
859.944,0.029499537239464295
860.062,0.027572339796275727
860.18,0.031211079972600034
860.297,0.03630922745549482
860.415,0.043959894422564275
860.532,0.05102254881450456
860.65,0.059891612379533804
860.768,0.07187526734025729
860.885,0.07518361590186778
861.003,0.08280747842595026
861.12,0.08655398140133858
861.238,0.0914519832509301
861.356,0.10012579617040612
861.473,0.10620122506290187
861.591,0.1075515880397435
861.708,0.10343166885452143
861.826,0.10094186450074841
861.943,0.09984742089098837
862.061,0.0912788751827938
862.178,0.08595081346659168
862.296,0.091250310624602
862.414,0.09529047277150607
862.531,0.09197866345113404
862.649,0.08234165755058975
862.766,0.08532944857032683
862.884,0.08658108319263895
863.001,0.08589252281816569
863.119,0.08386345078552879
863.236,0.09466102030909959
863.354,0.10193874116341736
863.471,0.1059650082085727
863.589,0.10859664583085965
863.706,0.11484539783463953
863.824,0.12037672379550698
863.941,0.12515259501393963
864.059,0.12509443346616353
864.176,0.12843472127762676
864.294,0.12978581557561253
864.411,0.128053659927708
864.529,0.12658112328615823
864.646,0.12751170792596433
864.764,0.13373998293769412
864.881,0.1410162411497229
864.999,0.15036652612800988
865.116,0.15567626178204536
865.233,0.17906791273782188
865.351,0.19829615241704382
865.468,0.2141025404603974
865.586,0.22932606555145638
865.703,0.24526262875855961
865.821,0.2419478941536089
865.938,0.2364384647935308
866.056,0.22096551615859233
866.173,0.22382313201457954
866.29,0.22665953955737161
866.408,0.2288209376836417
866.525,0.232316996898918
866.643,0.23913837335896743
866.76,0.23053106763010556
866.878,0.2271578273335817
866.995,0.21746012177803015
867.112,0.21489433693755206
867.23,0.21301190772212777
867.347,0.2144355926276637
867.465,0.21476571960455512
867.582,0.2303312271707909
867.699,0.2382359129293271
867.817,0.252060410536517
867.934,0.26341134721508724
868.051,0.2783191971239118
868.169,0.28740640539830253
868.286,0.29345256221692495
868.404,0.2933263878026942
868.521,0.30766720827214566
868.638,0.32132424347133903
868.756,0.3419302921871004
868.873,0.3661073820522409
868.99,0.4025531154402129
869.108,0.4348149605595798
869.225,0.4662094588013788
869.342,0.4961903132705483
869.46,0.5320992569383391
869.577,0.5587526001993015
869.694,0.5772487874127159
869.812,0.5872660372749317
869.929,0.5931813068367443
870.046,0.5953792710202455
870.164,0.5939966868794868
870.281,0.5875811506211714
870.398,0.5821294956315193
870.516,0.5739295357802314
870.633,0.5591747445093478
870.75,0.5444067894578601
870.867,0.5230986294096701
870.985,0.5106394552118771
871.102,0.492016706406882
871.219,0.4707626641233971
871.337,0.44767812501482596
871.454,0.4332919196008518
871.571,0.4171637072202953
871.688,0.39763631415935485
871.806,0.37654462516998466
871.923,0.36092029305809936
872.04,0.33893273566651916
872.157,0.3117001430254308
872.275,0.288456175907323
872.392,0.26745151413416685
872.509,0.25370155811604717
872.626,0.232822683579773
872.744,0.2121968461595517
872.861,0.19643210038789147
872.978,0.17750585330786195
873.095,0.161711854690415
873.213,0.1544011813510346
873.33,0.13614994368752678
873.447,0.12806114465022694
873.564,0.1156780278514783
873.681,0.10430486555350643
873.799,0.09580945195977526
873.916,0.0887620542324729
874.033,0.08726757795658097
874.15,0.08482092155034057
874.267,0.0752468092682348
874.385,0.0708232271925193
874.502,0.0669299013122398
874.619,0.06002930760801385
874.736,0.04988534082841928
874.853,0.044542695516267244
874.97,0.039889678097924056
875.088,0.04528836876671949
875.205,0.049063119062011065
875.322,0.05148030138226018
875.439,0.05218643235479854
875.556,0.04622539370002989
875.673,0.043486770682069895
875.791,0.042738367151516805
875.908,0.03840677002858643
876.025,0.04131957844217279
876.142,0.03841472966972946
876.259,0.03960482003047868
876.376,0.03284036064917596
876.493,0.03448839415163543
876.61,0.040341721614452805
876.728,0.0454550623057543
876.845,0.047019429538734905
876.962,0.05012786433515647
877.079,0.04916068204825458
877.196,0.04980003602284526
877.313,0.04164668993815142
877.43,0.04281435801216204
877.547,0.0392275168947947
877.664,0.03539664354092035
877.781,0.03414228678067112
877.898,0.039652450098520337
878.016,0.038695290595358284
878.133,0.03990497158652008
