wavelength_nm,intensity
792.446,291.83594658367065
792.565,245.5638253715494
792.684,205.68564355336753
792.803,172.2014011291251
792.922,145.11109809882174
793.041,114.67213705986072
793.16,102.81239680012054
793.279,103.479929267653
793.398,118.44876043648418
793.518,139.92754831527202
793.637,182.09464788237165
793.756,223.12581671354042
793.875,240.01672580444944
793.994,240.2175916053152
794.113,231.32148770921134
794.232,210.301574289298
794.351,188.42192060964436
794.47,177.423652211376
794.589,168.78209376981755
794.708,168.22192060964437
794.827,164.79767818540188
794.946,168.85395524167893
795.066,170.5794963672201
795.185,173.37083835856214
795.304,174.00287299059676
795.423,160.46607645380018
795.542,145.61932320704688
795.661,140.27213705986074
795.78,137.78469117241485
795.899,135.53274312046676
796.018,128.56304615076982
796.137,124.94659593431962
796.256,122.58122796895168
796.375,113.87819766592142
796.494,114.253955241679
796.613,112.91889030661409
796.732,106.46780805553192
796.851,100.41499420271803
796.97,92.68945307717686
797.089,83.39421498193886
797.208,89.06174744947128
797.327,105.92581671354054
797.446,121.14313273085656
797.565,137.61066519838903
797.684,143.29291628064016
797.803,144.1266825144064
797.922,138.65828424600812
798.041,126.14140112912503
798.16,119.00287299059683
798.279,106.51802450574826
798.398,94.01326260098634
798.517,98.9587171464409
798.636,103.76650935423311
798.755,112.38555697328079
798.874,127.16824095596479
798.993,134.77083835856226
799.112,138.24616303388694
799.231,136.36044874817267
799.35,129.51023229795618
799.469,128.4963794841034
799.588,115.61932320704707
799.707,111.76564355336738
799.826,105.48945307717689
799.945,101.6297128174366
800.064,105.64529723302098
800.183,122.24529723302099
800.302,132.94832753605127
800.421,144.40373879146264
800.54,148.81412840185226
800.659,160.09897688670077
800.778,168.04183402955795
800.897,176.12668251440635
801.016,172.4288470165708
801.135,172.30503749276122
801.254,172.8747344624582
801.373,174.89378208150578
801.492,177.67386866159228
801.611,192.31889030661392
801.729,204.65135783908156
801.848,206.34399853172226
801.967,186.16477775250152
802.086,162.2097993975232
802.205,139.02192060964438
802.324,111.97958268514546
802.443,83.68771312283219
802.562,66.51546437365901
802.681,47.63435505292121
802.8,36.46908412367807
802.919,25.641073175067643
803.038,13.405153249604233
803.157,11.995938989602898
803.276,9.874616833755857
803.394,4.59412692886369
803.513,-2.084470293933839
803.632,-10.27842428149378
803.751,-12.186110523997051
803.87,-8.212779170480509
803.989,-15.011008481906895
804.108,-13.771590049338169
804.227,-12.855976281609053
804.346,-20.013037559750334
804.465,-19.87130798893684
804.583,-18.171642200891803
804.702,-7.265653240848067
804.821,1.6363552346305568
804.94,10.591265285665369
805.059,24.220143998763326
805.178,34.75053286999207
805.297,33.50036046094315
805.416,51.78620126105447
805.535,58.66972085304605
805.653,57.78789772972216
805.772,51.51742672496252
805.891,65.85099917066282
806.01,79.52390039246211
806.129,110.69360147219552
806.248,154.99856660575514
806.367,211.57937189361314
806.485,246.46936067296724
806.604,271.4935485865205
806.723,284.44241182474923
806.842,287.7722274439303
806.961,280.18083094189944
807.08,270.5582656086998
807.198,261.52444486424463
807.317,247.02828645745177
807.436,231.08450900303984
807.555,219.42211683001318
807.674,210.1372138344757
807.793,218.17179135841863
807.912,246.64965892565155
808.03,280.3924615578195
808.149,321.11275336747667
808.268,370.297980242069
808.387,400.98883482228894
808.506,413.22081494363454
808.624,405.1125353247204
808.743,387.4085847101352
808.862,361.73320552412133
808.981,331.09159257187366
809.1,305.77378914343547
809.219,295.98672164573304
809.337,281.7225978709745
809.456,271.5268723646142
809.575,264.09738062448787
809.694,263.72936074583356
809.812,272.97519368103235
809.931,289.2963512915559
810.05,314.6642621488327
810.169,348.1040344779709
810.288,366.0606899239924
810.406,373.11691246958105
810.525,373.42421726625207
810.644,365.3168034482046
810.763,364.3392597600274
810.882,370.45435676449085
811.0,384.38763558713606
811.119,401.6499187387857
811.238,411.29575167398525
811.357,436.66366253126284
811.475,453.49304525001236
811.594,461.22199506832897
811.713,466.57432151002206
811.832,478.07902890409605
811.95,473.00364971808335
812.069,462.4408246446249
812.188,454.3697744629413
812.307,462.62946021199366
812.425,454.0034316753316
812.544,446.1263208875873
812.663,439.2067858574188
812.782,438.0370343770338
812.9,430.9945556239215
813.019,450.88194700067925
813.138,470.97972798782644
813.257,500.83768213514685
813.375,514.1354631222939
813.494,525.3319454081425
813.613,523.8080813736445
813.731,518.7240441789736
813.85,522.7629507072465
813.969,542.4979611316231
814.088,556.2347031577312
814.206,578.2770728894674
814.325,596.6371915389523
814.444,610.7384357295628
814.562,614.7911950716885
814.681,614.5591059289659
814.8,613.4698739291005
814.918,609.1416808902737
815.037,604.1944402323993
815.156,595.048065375391
815.274,592.9484437651358
815.393,582.6808567869152
815.512,585.8626204580454
815.631,586.5759858607773
815.749,586.3179226920809
815.868,591.097088960614
815.987,589.9273374802297
816.105,579.8277158699752
816.224,570.727228458855
816.343,541.0284726494665
816.461,529.7530934634547
816.58,496.32533332506193
816.698,460.93220522130116
816.817,429.8706788491422
816.936,401.48361135144216
817.055,376.7753317325299
817.173,356.9579612045269
817.292,344.53366426959747
817.41,349.03664006194094
817.529,339.7595292741978
817.648,338.1490851531213
817.766,339.7637492571531
817.885,348.6580670408384
818.004,361.94545841759725
818.122,370.6475684090747
818.241,377.10032775120135
818.359,382.27185179700655
818.478,377.0225659396024
818.597,341.32565501942895
818.715,344.01093452766486
818.834,352.88196995831663
818.953,502.6153290349587
819.071,667.2219764062806
819.19,872.548010782757
819.308,1040.2619673080244
819.427,1131.4242428269854
819.546,1072.3851596804896
819.664,941.5382230680123
819.783,739.7044697474037
819.901,619.0240459771023
820.02,472.4450630886351
820.138,404.566703364332
820.257,357.3368388171035
820.376,331.9841950436887
820.494,301.5590323078943
820.613,296.83949727772733
820.731,304.31476744236545
820.85,326.6030246199906
820.969,348.3492904556243
821.087,391.76828356398516
821.206,429.44788273295205
821.324,448.8859234603607
821.443,455.32050098430625
821.561,452.82953738271084
821.68,421.5939850365268
821.798,379.5419824738928
821.917,341.87699289827174
822.035,314.10464401529146
822.154,295.37558517560126
822.273,288.7963098856945
822.391,281.1347835135366
822.51,288.42477229289364
822.628,283.2818606393504
822.747,295.26275850961656
822.865,307.3891109253374
822.984,310.77174039733546
823.102,310.37947809444177
823.221,312.0833196876521
823.339,303.944737038438
823.458,302.62693361000294
823.576,285.92125139368886
823.695,294.7160020778074
823.813,300.60339345456646
823.932,303.7531224936631
824.05,299.5106437405519
824.169,304.05517797445384
824.287,299.1910541996978
824.406,297.9780126760239
824.524,288.8645382519171
824.643,291.0350465117928
824.761,290.2072863734001
824.88,294.8998725553538
824.998,297.89375743860626
825.117,308.2928371270535
825.235,308.70576962935354
825.354,310.6970571100086
825.472,303.3247082270273
825.591,293.31859311027955
825.709,279.5756814567353
825.828,270.88340438380635
825.946,268.67554251450554
826.064,270.38897803698177
826.183,286.97011245690726
826.301,302.35487651021293
826.42,305.40647366010217
826.538,305.9872415689128
826.657,304.9491282885929
826.775,298.5007918278003
826.894,286.0098729170933
827.012,270.6140428781357
827.13,271.3057632592238
827.249,259.3645832074117
827.367,237.70738583958257
827.486,224.7601451817103
827.604,224.51420322513678
827.723,234.89856429886646
827.841,243.0110639007347
827.959,257.2092777883175
828.078,281.11744838585696
828.196,304.4671774249548
828.315,311.9164735636198
828.433,321.795206931722
828.552,321.253161079045
828.67,301.298128213381
828.788,264.8643074689292
828.907,221.28694510114994
829.025,175.6519735098222
829.143,140.62992639221196
829.262,96.89214799290593
829.38,69.9770827867003
829.499,59.333817583357025
829.617,45.9224826501505
829.735,53.61512285417129
829.854,61.69005412099065
829.972,77.91874173263767
830.091,102.76130191059872
830.209,127.0867169229662
830.327,150.1311233698621
830.446,185.97610804463784
830.564,208.49160751603745
830.682,233.03387820021447
830.801,239.9004494059406
830.919,241.11160935625549
831.037,225.5625961463973
831.156,206.55990328285964
831.274,185.02820609031764
831.392,169.4757296769963
831.511,165.5102662506879
831.629,169.5525950321716
831.747,175.18193680066838
831.866,185.48746904535545
831.984,196.99646449350558
832.102,204.56173699793277
832.221,200.79194456729488
832.339,189.49920841371318
832.457,186.725952779612
832.576,176.4505326433463
832.694,166.00195233392054
832.812,152.8145310483531
832.93,150.0518493457257
833.049,147.88665648128853
833.167,142.47143317702256
833.285,136.1808158640643
833.404,140.8254494965586
833.522,147.4814247810958
833.64,158.9967716832051
833.759,169.78886202475724
833.877,194.10562769098487
833.995,222.66914660396586
834.113,254.18071746499862
834.232,278.74423637797935
834.35,303.5207423039468
834.468,317.74313567580174
834.586,326.93695761908515
834.705,331.4727709043599
834.823,321.5280647091155
834.941,294.96344509395783
835.059,273.9745830545578
835.178,249.83940066883764
835.296,231.4349542138535
835.414,225.88765061601214
835.532,243.02952450734824
835.651,269.5471559744418
835.769,286.5522333289814
835.887,301.80666133287167
836.005,335.9494010250738
836.124,352.8228766480121
836.242,369.77773755233585
836.36,386.7118192358804
836.478,412.90044637397045
836.596,429.3938354168224
836.715,435.3616833341331
836.833,442.36589488780754
836.951,462.1943488657246
837.069,466.860032280871
837.188,480.08588885619076
837.306,488.39486231462774
837.424,493.67872754795656
837.542,493.90198672067936
837.66,498.0352026033587
837.779,497.1450418626613
837.897,504.7354006024833
838.015,509.7370147535603
838.133,514.1524817184901
838.251,517.8484681639392
838.369,520.1920736570073
838.487,523.062951877348
838.606,532.8879426518012
838.724,533.0627169760377
838.842,538.8037250665079
838.96,531.0979799102248
839.078,524.0900702517772
839.196,518.5315112426802
839.315,520.8370214976525
839.433,517.8395014495945
839.551,523.7276956872506
839.669,529.158747067764
839.787,530.2668547253334
839.905,527.1801571880974
840.023,525.7151046725065
840.142,522.3357664426298
840.26,513.9624888188137
840.378,506.97968738547365
840.496,497.8020807573285
840.614,501.165599670309
840.732,490.0944865486575
840.85,493.497832301465
840.968,492.94360229669667
841.087,494.62573592829193
841.205,498.2256184776359
841.323,518.0584014598803
841.441,528.8903186412589
841.559,551.7005908009926
841.677,565.0433304931938
841.795,584.2994900988149
841.913,604.191147539934
842.031,619.3087790070269
842.149,638.3329039806131
842.267,655.8635224606927
842.385,669.6789894256208
842.504,679.9403438364365
842.622,679.4302696758235
842.74,680.2171652121802
842.858,686.8023291468053
842.976,692.0532939472312
843.094,688.2696267130251
843.212,681.5933187861783
843.33,679.7949329372539
843.448,666.3091012008836
843.566,652.0916677329119
843.684,660.7512905419965
843.802,670.6230345632025
843.92,682.8177223073521
844.038,699.2141416532334
844.156,714.8304744190282
844.274,734.6104435484593
844.392,736.1852178726958
844.51,736.7141047510449
844.628,737.5754591618618
844.746,720.326856862722
844.864,686.0808519661794
844.982,647.1006479354378
845.1,604.7914395756915
845.218,564.7341792678933
845.336,516.2725899557661
845.454,483.2335114661496
845.572,453.8680260501263
845.69,426.67916401072625
845.808,398.569089850114
845.926,374.5152927457789
846.044,352.03552161546986
846.162,328.2925470219575
846.28,306.7443776232504
846.398,287.8195848479197
846.516,266.7181686959657
846.634,248.44792137518033
846.752,234.54217621889705
846.87,206.407886472038
846.988,186.63490639450936
847.106,168.55835142860644
847.224,154.89496183537744
847.342,146.28336243488314
847.46,140.34207126420574
847.578,144.25259954215824
847.696,142.94780172940733
847.814,136.574862250225
847.932,144.35008045403708
848.05,174.7263924299911
848.168,211.69996778061358
848.285,237.42882068704125
848.403,244.37961781594086
848.521,247.76794358289686
848.639,228.96453761644688
848.757,223.033649701075
848.875,220.88737744472425
848.993,242.78843038378238
849.111,265.0147573981923
849.229,280.1753836906222
849.347,292.18622643326864
849.465,295.6394934183394
849.582,294.1334530441027
849.7,296.1754646179178
849.818,302.86769264194925
849.936,300.81100291706286
850.054,307.36297120083447
850.172,321.9980563677228
850.29,333.08682118829074
850.408,328.1669280002005
850.525,329.9466019116775
850.643,335.64921954609815
850.761,350.76568999437177
850.879,358.92804788853294
850.997,368.5856438779323
851.115,374.7176987417904
851.233,371.9051648610598
851.35,366.1142760019742
851.468,368.6151620346633
851.586,394.7160480673525
851.704,439.82386050696806
851.822,494.1394651543757
851.94,558.9468446935582
852.057,628.5498952284117
852.175,696.5191795294988
852.293,771.9248274669498
852.411,826.5045013784269
852.529,886.345647151376
852.647,935.2326803702128
852.764,970.8114884808248
852.882,1001.0205996217401
853.0,1023.6626111955557
853.118,1028.4786487433973
853.236,1023.973474170027
853.353,1007.2734944018513
853.471,983.3873674475285
853.589,939.3938811858463
853.707,897.9112174349866
853.824,863.2562593118325
853.942,823.0480544354317
854.06,783.5004556196371
854.178,743.0654109163966
854.296,706.6130501958398
854.413,661.1494340640277
854.531,596.6849521313495
854.649,536.1070502852513
854.767,476.66248177248633
854.884,421.87765351946166
855.002,367.1716131452251
855.12,315.5175208229366
855.238,266.9811774183969
855.355,224.28985565887876
855.473,177.73533043615686
855.591,141.69595672858628
855.708,111.692758107239
855.826,93.2756503322587
855.944,60.881404958049075
856.062,41.69309938626466
856.179,20.00229807361267
856.297,3.48349738942957
856.415,-7.582498232000681
856.532,-4.860633763140882
856.65,-6.314950809171641
856.768,-7.523321054474395
856.886,-20.144010621771546
857.003,-24.354342731692547
857.121,-32.14088994015552
857.239,-32.67817348230692
857.356,-33.40576732176936
857.474,-30.123614792662124
857.592,-24.14044623476086
857.709,-13.388130652906648
857.827,-17.848653118160637
857.945,-18.775438937273286
858.062,-13.662883584039891
858.18,-5.384811035330072
858.298,-1.7886791430319615
858.415,-4.718628002320896
858.533,2.7825990644016896
858.651,5.046011204069066
858.768,-6.892601362825337
858.886,-7.256916562928673
859.003,-10.185930287788292
859.121,-12.043369220554665
859.239,-15.179857620172083
859.356,-23.044235498239956
859.474,-28.358294370814086
859.592,-31.860444513711023
859.709,-33.37834679247146
859.827,-24.738696228876577
859.944,-22.962703656524205
860.062,-13.950864593040102
860.18,-9.00621455312431
860.297,-5.093733849782222
860.415,2.865119670891183
860.532,7.076063863595862
860.65,14.729783339429023
860.768,22.320798876403284
860.885,38.92097110397248
861.003,54.63138378731662
861.12,58.47958912036409
861.238,64.54651085736977
861.356,65.0739812003532
861.473,58.7933126170537
861.591,63.55766567877566
861.708,62.43370705218571
861.826,75.35823327408045
861.943,72.66538999414134
862.061,58.331406465637066
862.178,52.23764379575336
862.296,32.01017442984162
862.414,31.813498418312562
862.531,34.58958875123329
862.649,29.6733819683141
862.766,41.24183708836597
862.884,43.35640506928881
863.001,47.302714527502324
863.119,49.733514742923575
863.236,41.831363139092176
863.354,54.444806802952634
863.471,53.944882668177215
863.589,54.555047694519644
863.706,70.00936856501782
863.824,84.98576735759367
863.941,104.02969861770188
864.059,113.93250433668466
864.176,112.4093360296934
864.294,114.43508547161981
864.411,102.17944963216092
864.529,101.8528181217063
864.646,107.48203076709586
864.764,112.84890575014762
864.881,124.5828803002988
864.999,135.13590246949758
865.116,152.85775580752733
865.233,176.1718169377649
865.351,194.81921140133585
865.468,221.6163894146903
865.586,247.37460638908385
865.703,256.76399219464633
865.821,255.09796674479762
865.938,244.2198200828277
866.056,235.8178638970483
866.173,230.6141761095376
866.29,233.94555325709197
866.408,237.18602131373734
866.525,249.7771387210321
866.643,248.15267171274246
866.76,242.5628367390848
866.878,238.8968112892365
866.995,229.76152177012398
867.112,234.25134047611982
867.23,239.16453580549228
867.347,243.21885667599022
867.465,250.49828577159644
867.582,257.6036888931767
867.699,262.3220790277439
867.817,273.3383046601466
867.934,280.35020128822015
868.051,298.0452147994107
868.169,311.5298387002116
868.286,326.843034029584
868.404,340.31813412086126
868.521,373.0157450346494
868.638,394.2233126583944
868.756,420.36940842066764
868.873,458.01593708337384
868.99,507.33605881967304
869.108,553.3574792572708
869.225,595.3408044567732
869.342,628.4964240285701
869.46,675.9438184921418
869.577,711.7046328691333
869.694,735.0689104495882
869.812,751.9613265581816
869.929,764.052876865909
870.046,773.4768947061037
870.164,765.8403064856923
870.281,750.0054498670124
870.398,745.1402902180296
870.516,731.5868188807353
870.633,710.2333475434414
870.75,674.2798762061475
870.867,639.1281364705853
870.985,617.0950114536381
871.102,586.7623193371237
871.219,560.6711856621678
871.337,530.3679307750907
871.454,506.2187884421262
871.571,486.8878279273434
871.688,459.31271156840467
871.806,429.55317962505023
871.923,406.51312820117636
872.04,376.8722109764367
872.157,343.24081756122087
872.275,308.14275747933846
872.392,284.6429657957244
872.509,268.23321740215346
872.626,245.6468456319592
872.744,227.25527905657015
872.861,205.43687265434124
872.978,176.55526278890898
873.095,157.10222435204827
873.213,139.56520323120512
873.33,117.13727301945306
873.447,96.50674540510363
873.564,73.74461605915243
873.681,58.048287579002086
873.799,40.300011046903585
873.916,28.403682566753176
874.033,24.897313872028356
874.15,21.641967046259253
874.267,10.235512221234963
874.385,7.697448779126237
874.502,11.869243589192727
874.619,1.2156041890710334
874.736,-2.9372359164860056
874.853,-0.4279689283036261
874.97,-6.0750745216431525
875.088,-8.966781468166333
875.205,-12.56760824273757
875.322,-3.7382625355910313
875.439,-4.093103741024276
875.556,-18.761024428615865
875.673,-17.679863404325367
875.791,-20.30509152153835
875.908,-22.198497816595303
876.025,-24.341989848287284
876.142,-20.014717684888943
876.259,-12.467037529214155
876.376,-14.907285782300201
876.493,-18.575961497146583
876.61,-15.037704741321175
876.728,-11.30175642746418
876.845,-7.950828514677637
876.962,-7.2532184245796225
877.079,-3.4644788542153817
877.196,2.093191640591902
877.313,-0.7160426015632835
877.43,0.8839843260555065
877.547,-0.9598833858743003
877.664,1.9489840780017118
877.781,-4.983692133392967
877.898,0.03613607782475925
878.016,-1.8498169746215898
878.133,-2.716109891441028
878.25,-4.2777336317555665
878.367,-4.137433158067148
878.484,-11.642351574048842
878.601,-11.07092993498301
878.718,-13.711624423987704
878.835,-5.129876123515712
878.952,-13.528071424929696
879.069,-21.33437568155763
879.186,-23.943084932727814
879.303,-22.548200777769463
879.42,-28.762024598240806
879.537,-27.50151109656363
879.654,-24.965457699842997
879.771,-24.498681881393672
879.888,-35.02112853225066
880.005,-35.23453173539978
880.122,-33.15272403504978
880.239,-28.77570543120065
880.356,-22.10347592385242
