wavelength_nm,intensity
792.446,0.2542340090363391
792.565,0.21570860472275863
792.684,0.18396883860681196
792.803,0.1590147106884991
792.922,0.1408462209678199
793.041,0.12363290011402238
793.16,0.11949786527258585
793.279,0.13013616090878882
793.398,0.1450694012416433
793.518,0.16197382305804991
793.637,0.1887021703211746
793.756,0.2148868240765684
793.875,0.22227387933942527
793.994,0.21988459208809158
794.113,0.21165196471278097
794.232,0.19795900081793522
794.351,0.1857450080718093
794.47,0.17100833985365807
794.589,0.17001221846287998
794.708,0.16599497088065052
794.827,0.15725843244939422
794.946,0.14882533271900927
795.066,0.14568641926835074
795.185,0.1536195081831611
795.304,0.16260800214239024
795.423,0.16426716439625472
795.542,0.16338493002431265
795.661,0.15374665601925885
795.78,0.14361695172744693
795.899,0.12257281478115838
796.018,0.10802101795659713
796.137,0.10669883647079534
796.256,0.11417637731026162
796.375,0.11982236527146096
796.494,0.11766163210587345
796.613,0.1184736621511358
796.732,0.11397278476289038
796.851,0.10781508526500314
796.97,0.10443201676711403
797.089,0.10408801556638331
797.208,0.1176117090291235
797.327,0.1314060791736178
797.446,0.1388383772247795
797.565,0.14899538319918915
797.684,0.15128404424894862
797.803,0.15117639761470633
797.922,0.14926761997709168
798.041,0.14036337120987816
798.16,0.13669090487645358
798.279,0.12466792027369106
798.398,0.11190213897812719
798.517,0.10925020773580044
798.636,0.11124239203971756
798.755,0.11685681644246218
798.874,0.12290621698296328
798.993,0.12578446882467248
799.112,0.13315092635929507
799.231,0.1304070771691408
799.35,0.12925920633883903
799.469,0.1283851323825882
799.588,0.12491739857955819
799.707,0.11768905301071692
799.826,0.11136166296759903
799.945,0.1057565974412083
800.064,0.11261357994854518
800.183,0.12054078841371083
800.302,0.12942511586594369
800.421,0.1375871188014494
800.54,0.1396327647870016
800.659,0.14179073769524142
800.778,0.14236287286859353
800.897,0.14210269674675374
801.016,0.14334177302356327
801.135,0.15023541779038846
801.254,0.15579518035029868
801.373,0.1631786953077335
801.492,0.16616897951116494
801.611,0.17279038750008718
801.729,0.1762416801153821
801.848,0.17722490062384694
801.967,0.1677078940052455
802.086,0.15963631646817233
802.205,0.14692033269719734
802.324,0.13113598904084678
802.443,0.10690121136917573
802.562,0.08904326717329336
802.681,0.07134942685622772
802.8,0.055637152508169634
802.919,0.04618059765509474
803.038,0.03690420490061548
803.157,0.038799098397133844
803.276,0.04593276949900714
803.394,0.045502991987663444
803.513,0.04705256617649467
803.632,0.04022864164189001
803.751,0.029884511393217676
803.87,0.02997239476862511
803.989,0.020737615936292655
804.108,0.02414682018239652
804.227,0.03168045204382086
804.346,0.036545149197494874
804.465,0.04631037900462989
804.583,0.04624013751273503
804.702,0.04731981539456398
804.821,0.04944514189968273
804.94,0.04693235614272773
805.059,0.047542904848446366
805.178,0.04735997283754888
805.297,0.048006645982796796
805.416,0.0631925772698171
805.535,0.07257524490929028
805.653,0.08424690358791917
805.772,0.09279092703962011
805.891,0.10560586799737887
806.01,0.11972325461668831
806.129,0.13958342365924128
806.248,0.1606814766222855
806.367,0.18760492860359956
806.485,0.20717564743732259
806.604,0.22221896724827686
806.723,0.23604073177500376
806.842,0.24042079441138028
806.961,0.23706512029572385
807.08,0.23201986205130834
807.198,0.22692702087436545
807.317,0.21426927347364355
807.436,0.20672240105520664
807.555,0.20185421372363888
807.674,0.20432315857817784
807.793,0.209466888279215
807.912,0.22114976098643277
808.03,0.24605912884011322
808.149,0.2782307442647755
808.268,0.30911060007853053
808.387,0.33482731768902796
808.506,0.3451357456894714
808.624,0.34030968095391173
808.743,0.32660978932603324
808.862,0.30592222704929817
808.981,0.2859382681355087
809.1,0.2645502226881245
809.219,0.251356582260414
809.337,0.237033432221234
809.456,0.2277135105300967
809.575,0.2224389181518608
809.694,0.22213011181410514
809.812,0.22607646772121587
809.931,0.22704303998480893
810.05,0.23523051727145022
810.169,0.25205780702814473
810.288,0.26456285040559013
810.406,0.2805890307900615
810.525,0.28719535063026036
810.644,0.2900816212045072
810.763,0.2937853821605359
810.882,0.29126669962851703
811.0,0.29388775385752924
811.119,0.302144655422776
811.238,0.3143236387051974
811.357,0.3219526015706977
811.475,0.3177544755348849
811.594,0.32158538432701134
811.713,0.3292673904615584
811.832,0.33383856487611896
811.95,0.3308588739322366
812.069,0.334383223831195
812.188,0.34123369871862463
812.307,0.3451433923662477
812.425,0.35171148985081013
812.544,0.361649395016
812.663,0.3720210069104558
812.782,0.38408922336633855
812.9,0.3842110035655525
813.019,0.39404594238494534
813.138,0.3935546047978231
813.257,0.40515947269761965
813.375,0.4151707023817862
813.494,0.42239248015254455
813.613,0.43457458362726353
813.731,0.4420654779836277
813.85,0.4410975310231577
813.969,0.44218501073825567
814.088,0.4288353606957026
814.206,0.4252331913885941
814.325,0.4192417348301518
814.444,0.4230422217473846
814.562,0.42646594544476923
814.681,0.4260003494440965
814.8,0.43276657913951083
814.918,0.4293188593510974
815.037,0.42519483788233603
815.156,0.42123072626878966
815.274,0.41469557620261643
815.393,0.4148992614496239
815.512,0.410186303684827
815.631,0.4097807713858693
815.749,0.41413743258002056
815.868,0.40870917073116475
815.987,0.41139886919070956
816.105,0.40525608330586926
816.224,0.38920200658999843
816.343,0.37621273875773553
816.461,0.35888952382511036
816.58,0.3402815697142463
816.698,0.32613471053984255
816.817,0.3155183489493555
816.936,0.314859301026278
817.055,0.3086899935069151
817.173,0.2988209179715299
817.292,0.29660645418845877
817.41,0.29075774642759983
817.529,0.2826742009341026
817.648,0.2781024318707407
817.766,0.2854568178141177
817.885,0.29418408836812054
818.004,0.300523631766938
818.122,0.3078413554508265
818.241,0.31733541326178694
818.359,0.32325494887022765
818.478,0.32639466204832646
818.597,0.3094600195759233
818.715,0.324599460585994
818.834,0.3348792507128546
818.953,0.4384419553395593
819.071,0.5540314910656927
819.19,0.7007429367264315
819.308,0.8201754383240305
819.427,0.8838239045556275
819.546,0.8404202793559271
819.664,0.7444536303689953
819.783,0.5905799685289986
819.901,0.49530349161439247
820.02,0.38554545575424815
820.138,0.3294812865110534
820.257,0.2952404090621354
820.376,0.27519108440519235
820.494,0.2507553911318358
820.613,0.24167728434370916
820.731,0.2418817496387924
820.85,0.2526745874933286
820.969,0.2670798279795744
821.087,0.29177312251669874
821.206,0.32547519226298194
821.324,0.33491932699719307
821.443,0.3358570374820427
821.561,0.3296175256360005
821.68,0.31883111356533395
821.798,0.28783989627623885
821.917,0.2586412294616997
822.035,0.2397360770345586
822.154,0.22952066015422057
822.273,0.2223318298018535
822.391,0.22225781793444088
822.51,0.23290088655872737
822.628,0.23853214630615482
822.747,0.24395825341006266
822.865,0.24876422229496623
822.984,0.24377590755997214
823.102,0.23984455796554507
823.221,0.24256545834806037
823.339,0.2447910282034465
823.458,0.25195976270516046
823.576,0.24765477008318254
823.695,0.26044141081542405
823.813,0.26327541816870115
823.932,0.2579001995888943
824.05,0.25218175985643076
824.169,0.2432136398467697
824.287,0.23384769531925684
824.406,0.2282431426056296
824.524,0.2222041031146622
824.643,0.22907953954046978
824.761,0.23221152525809863
824.88,0.23849178500327672
824.998,0.24137103514485858
825.117,0.2418204355352472
825.235,0.2401153431446422
825.354,0.24369039616842772
825.472,0.24217563550793209
825.591,0.24596988204057296
825.709,0.24008295192407775
825.828,0.23644490040555688
825.946,0.2262255832848477
826.064,0.22153368681805652
826.183,0.2191850547662203
826.301,0.2324826269870751
826.42,0.23478620164988295
826.538,0.23981604433208722
826.657,0.23846509376717767
826.775,0.24061811915166126
826.894,0.2266241493998051
827.012,0.21358651858694191
827.13,0.20270494065122097
827.249,0.19906844922884903
827.367,0.18754957201649086
827.486,0.18372118876786087
827.604,0.1882400999614518
827.723,0.20635524908868536
827.841,0.22456322393675096
827.959,0.24056444278285022
828.078,0.2546795053854871
828.196,0.2716542242282119
828.315,0.2744102267740669
828.433,0.27291730745964926
828.552,0.26434389177554296
828.67,0.24632097372034384
828.788,0.22333929005733244
828.907,0.18967573057682507
829.025,0.155115367102017
829.143,0.132932713399738
829.262,0.112157487069182
829.38,0.09285302569492071
829.499,0.08114279632908958
829.617,0.06944311109594166
829.735,0.06715312416793905
829.854,0.06685369812397515
829.972,0.08068942508724035
830.091,0.10057061712092699
830.209,0.12405084233901023
830.327,0.13566718429456814
830.446,0.1526194807184567
830.564,0.16326382208409013
830.682,0.1718118764736424
830.801,0.1755369300993825
830.919,0.17687893685838252
831.037,0.16984790758871246
831.156,0.16050871606742734
831.274,0.15105407743115773
831.392,0.1439856058539249
831.511,0.1413524876267031
831.629,0.14500577682961474
831.747,0.15141575592681747
831.866,0.15581633118483124
831.984,0.15860688721765642
832.102,0.15832310218871848
832.221,0.14634640589770315
832.339,0.13468087937314133
832.457,0.13007969592890226
832.576,0.12612764594837558
832.694,0.12679897875360438
832.812,0.12205164964013776
832.93,0.1263020765941864
833.049,0.12289692984980408
833.167,0.10630009060257348
833.285,0.10060874419338497
833.404,0.10287460119068505
833.522,0.10929593662493636
833.64,0.12252437170309892
833.759,0.13157719858024744
833.877,0.1582766932403198
833.995,0.17664522953182898
834.113,0.19380101958686125
834.232,0.21391007165088782
834.35,0.2311555672344553
834.468,0.23396315301229748
834.586,0.2332183998601448
834.705,0.22687602172739438
834.823,0.21892050417715841
834.941,0.20325655155748729
835.059,0.1965592515509672
835.178,0.18874102246179414
835.296,0.18542211066471806
835.414,0.18047679863289462
835.532,0.18976658390749937
835.651,0.20798791963191524
835.769,0.2228932709928248
835.887,0.2377323182674258
836.005,0.2594428090278247
836.124,0.27168741640757244
836.242,0.2819585021595453
836.36,0.2915548463273185
836.478,0.30440243086843777
836.596,0.3172188134865882
836.715,0.3272746059700764
836.833,0.3365659513408298
836.951,0.35312578466715866
837.069,0.3616924653769622
837.188,0.3682310210937956
837.306,0.3752251248859729
837.424,0.37962478878329675
837.542,0.38229586614815064
837.66,0.3829364783758117
837.779,0.3852690148764545
837.897,0.39272022684012453
838.015,0.39293337272311374
838.133,0.39036720731765945
838.251,0.3942957221781553
838.369,0.40065564688599253
838.487,0.40153027353591964
838.606,0.39628152280322515
838.724,0.3958971518613621
838.842,0.39701125327007425
838.96,0.3862522429410941
839.078,0.3754089874200984
839.196,0.3711095551937285
839.315,0.377279148171456
839.433,0.3740983048835168
839.551,0.3793880036335252
839.669,0.38485789348867816
839.787,0.39310319439190344
839.905,0.3865517633752627
840.023,0.3818740078328967
840.142,0.37873762728518795
840.26,0.37294752318898516
840.378,0.3663141871245512
840.496,0.3635452092197997
840.614,0.36184723732095114
840.732,0.36128657551431426
840.85,0.35311342455137096
840.968,0.3518171774107449
841.087,0.3534195889139178
841.205,0.3568012900743849
841.323,0.3684374599562408
841.441,0.3856213317419446
841.559,0.4060431830837327
841.677,0.4223456005455687
841.795,0.4389007535834515
841.913,0.44710315184259397
842.031,0.4568344443272062
842.149,0.4658668137373181
842.267,0.4688155882165935
842.385,0.4834565032803425
842.504,0.4930107248521073
842.622,0.5007528947474608
842.74,0.507517410230966
842.858,0.5057401685055798
842.976,0.5086915523300758
843.094,0.5044113863331136
843.212,0.5009076440446287
843.33,0.5046453639037511
843.448,0.5047654966692734
843.566,0.5031144161328731
843.684,0.5069278482310081
843.802,0.5105351965575943
843.92,0.5068815126683718
844.038,0.5185917871172785
844.156,0.5286670808026213
844.274,0.5409756521244541
844.392,0.5449291285233238
844.51,0.544264720322815
844.628,0.5423101126075474
844.746,0.5305292393013391
844.864,0.4978610187117603
844.982,0.4761696346225956
845.1,0.4461449969565461
845.218,0.4241899566182952
845.336,0.3974259199024822
845.454,0.37337411034072965
845.572,0.35099160365780624
845.69,0.3328837604216046
845.808,0.30860261672603145
845.926,0.2961805439028147
846.044,0.29024691096095406
846.162,0.28212290302668563
846.28,0.26174043960606075
846.398,0.2456006576611146
846.516,0.23417314613252735
846.634,0.21813867067760093
846.752,0.19837322528368365
846.87,0.1856289926058144
846.988,0.17636377433896308
847.106,0.1614510080147639
847.224,0.14312085107740993
847.342,0.13840799337170234
847.46,0.1445502846668308
847.578,0.13610538232319308
847.696,0.1300975465973267
847.814,0.1323385978524438
847.932,0.13574925310271196
848.05,0.1397277196961193
848.168,0.1498080342579664
848.285,0.16347800865348502
848.403,0.17579713621836596
848.521,0.18027336579418085
848.639,0.188417381414975
848.757,0.20459745229637638
848.875,0.21744437775663872
848.993,0.22585829001111296
849.111,0.23800161210842977
849.229,0.24216816259878
849.347,0.24759137053669766
849.465,0.25569170346533604
849.582,0.26186063736220744
849.7,0.2753838645028185
849.818,0.28538907482870046
849.936,0.28288855442869854
850.054,0.2835019859409802
850.172,0.2841825015876447
850.29,0.2921978092761933
850.408,0.29809450639516233
850.525,0.29677887901989963
850.643,0.304651437910866
850.761,0.302278845395036
850.879,0.2981987276447398
850.997,0.30109379977411255
851.115,0.30465191276657166
851.233,0.3159504427995088
851.35,0.32659685264239857
851.468,0.33287421322158584
851.586,0.35082811342376186
851.704,0.3705893850139041
851.822,0.40777147024558613
851.94,0.45267837155626195
852.057,0.501292061315628
852.175,0.5501834481894161
852.293,0.5949195189718381
852.411,0.6331258073249704
852.529,0.6702946317393909
852.647,0.706248921302252
852.764,0.7373645726607307
852.882,0.7673257528693649
853.0,0.7862172708567526
853.118,0.7822229583946201
853.236,0.7716957433109009
853.353,0.7513485030208344
853.471,0.727686058415336
853.589,0.7019775477111604
853.707,0.671269708899313
853.824,0.6496985731807965
853.942,0.6325620107642168
854.06,0.6080711551038975
854.178,0.5820147429586201
854.296,0.54872182482881
854.413,0.5107673394074655
854.531,0.4697496051986616
854.649,0.4246108770137571
854.767,0.3876228711563701
854.884,0.3600913881027441
855.002,0.3247469435377374
855.12,0.28276663000534713
855.238,0.2437395784819512
855.355,0.20548321445588413
855.473,0.16799972265260799
855.591,0.13007133799620682
855.708,0.1095540867431463
855.826,0.09551813337080252
855.944,0.07637728811793124
856.062,0.0587637483345171
856.179,0.05489307984050936
856.297,0.050016721619010364
856.415,0.04493969648278106
856.532,0.03754372067315853
856.65,0.036205763495220436
856.768,0.03093003765960535
856.886,0.023802037334773003
857.003,0.01882200161011594
857.121,0.01587438998404872
857.239,0.00923103696288688
857.356,0.013850173569780522
857.474,0.012011922380227358
857.592,0.013362992606064375
857.709,0.023275287199922782
857.827,0.02795128856178362
857.945,0.03421363995585343
858.062,0.03916492259695137
858.18,0.04028654126443022
858.298,0.04931304939194486
858.415,0.04686734976055508
858.533,0.0464388609759281
858.651,0.052322825996628866
858.768,0.04507829756639352
858.886,0.0462120205972968
859.003,0.04391831269778687
859.121,0.03814662908880517
859.239,0.04300473770654647
859.356,0.03832061909091024
859.474,0.03744809918021115
859.592,0.03904772630753479
859.709,0.03008569774017561
859.827,0.03282373377875483
859.944,0.029512989707979168
860.062,0.03277533547986552
860.18,0.041283150181801356
860.297,0.04552180091289204
860.415,0.052877014767011614
860.532,0.053265184626978844
860.65,0.05249072922495426
860.768,0.06308447090767083
860.885,0.0722391349951074
861.003,0.09095269588114488
861.12,0.09985029206102523
861.238,0.10303303018260397
861.356,0.09915597955477504
861.473,0.09494262370032039
861.591,0.09305771134741045
861.708,0.09393572927338528
861.826,0.10016487698850479
861.943,0.10761404032726904
862.061,0.09898443689570477
862.178,0.0847919064300229
862.296,0.0707149664715141
862.414,0.07046517885344475
862.531,0.06821324802344292
862.649,0.06773925218141102
862.766,0.08053274244664682
862.884,0.08738941606787828
863.001,0.08859332777875492
863.119,0.08715310139621807
863.236,0.08773566225833868
863.354,0.09669916363959252
863.471,0.09606596757318198
863.589,0.09758960443198797
863.706,0.1125285080712176
863.824,0.12535972181390664
863.941,0.1365887168121491
864.059,0.14069509284469478
864.176,0.14265555662506305
864.294,0.14456999756905228
864.411,0.13657080753778833
864.529,0.13230258744551537
864.646,0.1347349803107863
864.764,0.13871498855530834
864.881,0.14040321555777402
864.999,0.14534736322203107
865.116,0.16067395075414725
865.233,0.1820201692750139
865.351,0.200895975544828
865.468,0.21771791523522263
865.586,0.23314902920928415
865.703,0.2340236660703391
865.821,0.22812514550294774
865.938,0.22115093864120816
866.056,0.21729068369175214
866.173,0.21733924964220935
866.29,0.21700091174785396
866.408,0.22286239594739388
866.525,0.22849376596503915
866.643,0.22787617086011375
866.76,0.22884753368237312
866.878,0.22799358401095937
866.995,0.2197455586440208
867.112,0.21361770394281038
867.23,0.2055108672773055
867.347,0.20790035749849572
867.465,0.2097367936350644
867.582,0.2195897838303849
867.699,0.22668608413141447
867.817,0.23856797936777951
867.934,0.23697766431430284
868.051,0.2487885751759139
868.169,0.25484819158630595
868.286,0.26686269499528825
868.404,0.2771922945639568
868.521,0.29826315611462484
868.638,0.3124446330737882
868.756,0.33676283475743135
868.873,0.34859558696512016
868.99,0.38628693283317916
869.108,0.41389693739002775
869.225,0.44328935179646756
869.342,0.46371277344553385
869.46,0.49293591741986786
869.577,0.5069910265910075
869.694,0.5267108448771278
869.812,0.5342158903690479
869.929,0.5541229201929809
870.046,0.5598525762679778
870.164,0.5632436482164653
870.281,0.5563396456814061
870.398,0.5556027032211249
870.516,0.5409005600880954
870.633,0.5364661897560148
870.75,0.5204083230699921
870.867,0.5074831294500345
870.985,0.48954768704936613
871.102,0.4695880198960988
871.219,0.4503225955288864
871.337,0.43067494760530656
871.454,0.41788470230218855
871.571,0.4021762971534161
871.688,0.3853485230181389
871.806,0.36774070080864235
871.923,0.348387131009043
872.04,0.321105932631153
872.157,0.2947264698270602
872.275,0.26761766207357235
872.392,0.2516736824063852
872.509,0.22814919555393484
872.626,0.2223598817169346
872.744,0.20538311839948087
872.861,0.18924724690603556
872.978,0.1719662648396365
873.095,0.16036559284970248
873.213,0.14788268648782657
873.33,0.14000440390806734
873.447,0.1277016886513363
873.564,0.11842165968220512
873.681,0.09733327261933618
873.799,0.08077045803120028
873.916,0.07060156814352614
874.033,0.06488032109719101
874.15,0.06019227715039434
874.267,0.05891460228459308
874.385,0.05687866950597713
874.502,0.058944151244491455
874.619,0.05818733673366476
874.736,0.06373410844177217
874.853,0.06190395585755418
874.97,0.061004598568959095
875.088,0.06024165922697129
875.205,0.05178469705589478
875.322,0.053298670057959706
875.439,0.05428618793458927
875.556,0.052098131347019724
875.673,0.05139465499148799
875.791,0.0475847977733721
875.908,0.051814032699325496
876.025,0.04817309403766591
876.142,0.04494217457594197
876.259,0.051898853284388514
876.376,0.04973683400985017
876.493,0.04622522316553267
876.61,0.04191712993734161
876.728,0.04986573994101824
876.845,0.054892356180876636
876.962,0.04913413480177012
877.079,0.05392842201374337
877.196,0.056574924110191556
877.313,0.05013087937325524
877.43,0.04363037301512039
877.547,0.042103202552023544
877.664,0.04860931981843893
877.781,0.04170447289427247
877.898,0.04019093945274037
878.016,0.04118343351865465
878.133,0.043445705678049666
