wavelength_nm,intensity
792.446,0.29948264977540123
792.565,0.25442842510599795
792.684,0.21687079523123204
792.803,0.18680976015110345
792.922,0.16424531986561197
793.041,0.1387635880380848
793.16,0.13599030487450495
793.279,0.1439258600521979
793.398,0.1627978928776182
793.518,0.18139333170702387
793.637,0.20694441601142788
793.756,0.22830253115500887
793.875,0.24079903157671817
793.994,0.2360920381755141
794.113,0.22569650984742595
794.232,0.20384150460480993
794.351,0.18790838497598122
794.47,0.17772254590150877
794.589,0.17604911143004592
794.708,0.17471672796251841
794.827,0.17507817675377046
794.946,0.17151427535379482
795.066,0.17635915779725986
795.185,0.17813621302829158
795.304,0.18353265164080046
795.423,0.1805186745868833
795.542,0.17040463572376577
795.661,0.1603982971776804
795.78,0.15015697612170653
795.899,0.13959337002612865
796.018,0.14199622937203715
796.137,0.13899612281349538
796.256,0.14053003641971196
796.375,0.14048434537612253
796.494,0.1286225033300884
796.613,0.12574773491571312
796.732,0.1122117639496836
796.851,0.10510344549068681
796.97,0.10294266706822122
797.089,0.1021935813827129
797.208,0.11487523996327023
797.327,0.131342974518122
797.446,0.143501894812526
797.565,0.16413667771431642
797.684,0.1732064700867049
797.803,0.18092184938126393
797.922,0.17354939335339867
798.041,0.16424077935343145
798.16,0.1627502292762128
798.279,0.1497651180902816
798.398,0.14064824329109132
798.517,0.14044928110676685
798.636,0.14345358744265851
798.755,0.15225168128798855
798.874,0.1460525059865806
798.993,0.1446476266160923
799.112,0.15038768418690124
799.231,0.1476789782511289
799.35,0.13612252808886044
799.469,0.1337271321662728
799.588,0.13044565636264716
799.707,0.13627383237466437
799.826,0.13154656140603033
799.945,0.12844948159974778
800.064,0.13235618604653093
800.183,0.14311165156277278
800.302,0.14197194342740183
800.421,0.15338095404927096
800.54,0.16064350246539946
800.659,0.17296551804756488
800.778,0.1773682966818908
800.897,0.18165766361873592
801.016,0.1790174942483482
801.135,0.18142700110608534
801.254,0.18656573190679823
801.373,0.20049019766056453
801.492,0.20712612605032413
801.611,0.21192706949307238
801.729,0.2198790631205061
801.848,0.2244825559820285
801.967,0.20510233051656285
802.086,0.18477727954258721
802.205,0.16862479994211788
802.324,0.15098328186752874
802.443,0.12194561292921186
802.562,0.10105285451162731
802.681,0.09415645120022459
802.8,0.08501923930588393
802.919,0.07372704026499233
803.038,0.06346191301932946
803.157,0.055085249318322066
803.276,0.04647387247994063
803.394,0.040633131434939074
803.513,0.04076689497186281
803.632,0.039229651176452156
803.751,0.03309985941433197
803.87,0.03485840150630386
803.989,0.03421346999732835
804.108,0.029008803906370503
804.227,0.028239783673885663
804.346,0.031094644066964456
804.465,0.03595400804216392
804.583,0.04321904965718268
804.702,0.04434523970710598
804.821,0.04953095499767602
804.94,0.05301017889481431
805.059,0.054892252285948163
805.178,0.060287798485612595
805.297,0.06441847784489599
805.416,0.0764782596823739
805.535,0.09002912273866036
805.653,0.09242328423201626
805.772,0.09835527362319302
805.891,0.10325774236313709
806.01,0.11694590719159975
806.129,0.13749017629295493
806.248,0.1686176333657119
806.367,0.2099741728220526
806.485,0.23876322755682167
806.604,0.26001407601082716
806.723,0.2746764391615349
806.842,0.2747658071416921
806.961,0.2695452231275633
807.08,0.2587813364322452
807.198,0.2537883917245707
807.317,0.24921808917009836
807.436,0.24154650703199343
807.555,0.23482954134031048
807.674,0.23026658198927213
807.793,0.23450975537860386
807.912,0.24540505516766092
808.03,0.2646038862176041
808.149,0.2890653463952585
808.268,0.3183790322198119
808.387,0.34402845953079164
808.506,0.3545076444585876
808.624,0.34652030457281957
808.743,0.33716223337936846
808.862,0.32273816772793895
808.981,0.3045560137412786
809.1,0.27997303409463437
809.219,0.2669099088129754
809.337,0.26050625313447595
809.456,0.2556144814518911
809.575,0.2496522338909253
809.694,0.2562974507146717
809.812,0.2705265648627709
809.931,0.286837069228667
810.05,0.30427516327743065
810.169,0.3228375833630913
810.288,0.33966700743832445
810.406,0.33988365761133615
810.525,0.33432936579670425
810.644,0.3254241254816833
810.763,0.32328605508685426
810.882,0.3315973631786294
811.0,0.3408918446190699
811.119,0.3550956655108962
811.238,0.37357567853579754
811.357,0.3850559868650967
811.475,0.3917411833519835
811.594,0.3944896068867453
811.713,0.4041569598793353
811.832,0.40819941904146934
811.95,0.3971850475179005
812.069,0.38645461319378016
812.188,0.3810610559432039
812.307,0.36707431885184394
812.425,0.354996814653328
812.544,0.3532397749255747
812.663,0.3571843247085882
812.782,0.35977690914824995
812.9,0.3572741263161975
813.019,0.3672156255703235
813.138,0.3862325083574003
813.257,0.3879071923678099
813.375,0.4014574681540082
813.494,0.4105993741453189
813.613,0.41209292580435575
813.731,0.4112815274966042
813.85,0.4176036433692526
813.969,0.4315700340167113
814.088,0.45119069130836215
814.206,0.4588916976036203
814.325,0.47555059617688505
814.444,0.48021641171941687
814.562,0.48096666800863286
814.681,0.4823957626597487
814.8,0.492691367501692
814.918,0.48513482888405046
815.037,0.4884168585350159
815.156,0.48437200298181904
815.274,0.48401017190652745
815.393,0.4827067789686967
815.512,0.4844255221997097
815.631,0.48985095134191514
815.749,0.4964977999886451
815.868,0.4886197922428921
815.987,0.48975352693366153
816.105,0.4827159080253567
816.224,0.4697694580871473
816.343,0.45345410959571014
816.461,0.4366500301201649
816.58,0.41364665512332494
816.698,0.38165601503474256
816.817,0.35538654633275113
816.936,0.33948731270257504
817.055,0.3281220992371571
817.173,0.3181341443713635
817.292,0.31948980698813867
817.41,0.3190178278613366
817.529,0.3200242803592497
817.648,0.3102558056849837
817.766,0.31612019521024426
817.885,0.31656856424717184
818.004,0.3188323363552866
818.122,0.3218394038332224
818.241,0.3256272986096416
818.359,0.32355415230949386
818.478,0.324613833177134
818.597,0.3012989350079851
818.715,0.3106651321135999
818.834,0.3151120513724899
818.953,0.42049060883119743
819.071,0.5409946524988896
819.19,0.6913391924952532
819.308,0.8137689328834168
819.427,0.8805312100029792
819.546,0.841866872561366
819.664,0.7515608275138919
819.783,0.6029077228152432
819.901,0.5104516953211493
820.02,0.4006349104954269
820.138,0.34190515586786696
820.257,0.3030354707927849
820.376,0.28517486889386645
820.494,0.2691630394777019
820.613,0.2675006454830967
820.731,0.27600532459863264
820.85,0.29248553855500237
820.969,0.31028426548352434
821.087,0.33926097986160364
821.206,0.3700498336648994
821.324,0.3874226547942486
821.443,0.39301616170394393
821.561,0.3829392724854497
821.68,0.366663087745661
821.798,0.3347491433373895
821.917,0.302965744767945
822.035,0.28525110806658177
822.154,0.2711419842513201
822.273,0.26136943001959073
822.391,0.2621425318306006
822.51,0.2686286459132746
822.628,0.2688444801747919
822.747,0.26835455099515104
822.865,0.26916436882333095
822.984,0.2736441565455333
823.102,0.2686658982447234
823.221,0.26702553386041994
823.339,0.2725896679563785
823.458,0.28352984287752914
823.576,0.2860751044506144
823.695,0.2918073163140625
823.813,0.2988139819290586
823.932,0.29727315874686044
824.05,0.28782533728921267
824.169,0.28008521858572
824.287,0.2733772279204528
824.406,0.2697085075653756
824.524,0.2738790648318566
824.643,0.2717377307910549
824.761,0.27461833198762753
824.88,0.26833624712153387
824.998,0.26893066431564955
825.117,0.2708223807831081
825.235,0.27591083847884146
825.354,0.2736422222451838
825.472,0.28041553717327744
825.591,0.2729805693680435
825.709,0.27333102902585166
825.828,0.26792196945691366
825.946,0.26182591241114894
826.064,0.25832445391206993
826.183,0.2579291704655797
826.301,0.2582869733268223
826.42,0.26582806096951755
826.538,0.2618933534678315
826.657,0.26703810905655934
826.775,0.2638980993487322
826.894,0.25301672139846715
827.012,0.24072871203484184
827.13,0.23117319026016303
827.249,0.22224102486588287
827.367,0.21668428531677197
827.486,0.21230490605158164
827.604,0.20800793384715088
827.723,0.21100439447568298
827.841,0.21565062814239064
827.959,0.23157194272628293
828.078,0.2493249786112156
828.196,0.26141885238300017
828.315,0.2749242530371011
828.433,0.28446840339429696
828.552,0.2779537837527931
828.67,0.2586105567411522
828.788,0.22477706333290323
828.907,0.18856661274133835
829.025,0.15279436593433193
829.143,0.12148945473510797
829.262,0.0988309245725508
829.38,0.09260053223666159
829.499,0.08831671661090791
829.617,0.08656973502377423
829.735,0.0875683847453248
829.854,0.08955370469512952
829.972,0.1035097824990441
830.091,0.11168604126917585
830.209,0.12258680382363726
830.327,0.1469791659447905
830.446,0.1657231946245407
830.564,0.18709930460624807
830.682,0.20690253220355437
830.801,0.2225046382445306
830.919,0.2155057643540339
831.037,0.198850732337512
831.156,0.18854858417094456
831.274,0.1768894713425106
831.392,0.16662237136897515
831.511,0.16870398798741723
831.629,0.18271850715417323
831.747,0.18861322953559845
831.866,0.18566160792895492
831.984,0.18417291562866586
832.102,0.1884967768021466
832.221,0.17752556113406537
832.339,0.1693545537088223
832.457,0.16823791704919028
832.576,0.16940420074604445
832.694,0.1636262617287978
832.812,0.1644629171826139
832.93,0.16036493992877143
833.049,0.16525667550114956
833.167,0.16197868929743894
833.285,0.15553251876769697
833.404,0.1490520799552628
833.522,0.15558216580491901
833.64,0.16268094196496488
833.759,0.17982195677677337
833.877,0.19819010247355512
833.995,0.22140965790574324
834.113,0.24464634747927738
834.232,0.2630357068748683
834.35,0.2740973651548042
834.468,0.2900724424435893
834.586,0.29167197514304966
834.705,0.29301204798784153
834.823,0.2763531133043683
834.941,0.2577906571084996
835.059,0.24463932593200788
835.178,0.23782273158459358
835.296,0.2383664748125412
835.414,0.23986320266392563
835.532,0.24511312338158486
835.651,0.25760344268518376
835.769,0.2610273534822513
835.887,0.27244882873045456
836.005,0.29244390194361747
836.124,0.31793903452885813
836.242,0.33894012661248124
836.36,0.3526029107310446
836.478,0.36372739419591654
836.596,0.3744259718616157
836.715,0.3837244454058959
836.833,0.39640242435280865
836.951,0.4118651092241987
837.069,0.42798133920121606
837.188,0.4331423255661747
837.306,0.4358612888335769
837.424,0.4395103912026209
837.542,0.43744648130000086
837.66,0.43829455951471447
837.779,0.44548634958492506
837.897,0.4483505450980226
838.015,0.4480016811529919
838.133,0.4358278119447179
838.251,0.43166456177146245
838.369,0.43575751999251844
838.487,0.4397158528172841
838.606,0.4436284945984602
838.724,0.451267404166653
838.842,0.45280982306162776
838.96,0.44087420000921296
839.078,0.42981160225395354
839.196,0.4356081836717016
839.315,0.441066977731485
839.433,0.450475599327276
839.551,0.4558813591400357
839.669,0.45092096343844323
839.787,0.44792120305373295
839.905,0.4360190323725176
840.023,0.4382508964787972
840.142,0.4475248926782981
840.26,0.43964842930190895
840.378,0.43309700618961355
840.496,0.4299063225156191
840.614,0.41687493032855083
840.732,0.4114078535900115
840.85,0.4140329870357573
840.968,0.42847578254131236
841.087,0.4396263751739504
841.205,0.44660602825606766
841.323,0.4577451981278087
841.441,0.4722385801459095
841.559,0.47696713341975494
841.677,0.48696321129026754
841.795,0.5006912683282456
841.913,0.5188130087542429
842.031,0.533367584134294
842.149,0.5486368979819226
842.267,0.5647604711623752
842.385,0.5802476333785467
842.504,0.5817027497438068
842.622,0.5864965759370663
842.74,0.5834021698192078
842.858,0.5808764540117389
842.976,0.5783711359915871
843.094,0.5704767225623602
843.212,0.5683246942185334
843.33,0.5688317214293133
843.448,0.5605554614215176
843.566,0.5548354521202521
843.684,0.5529485950115427
843.802,0.5543743385630667
843.92,0.5686319221597869
844.038,0.5797098986695779
844.156,0.5960398974576755
844.274,0.6122907528309842
844.392,0.6178596949422781
844.51,0.6140888981969963
844.628,0.6079796991137271
844.746,0.592393688043114
844.864,0.5749025236371206
844.982,0.548774936081232
845.1,0.516543514648691
845.218,0.48766467353952425
845.336,0.4560207083817042
845.454,0.42220968229935674
845.572,0.39662222815161424
845.69,0.3722105024648068
845.808,0.3550024593467688
845.926,0.3414137996102079
846.044,0.32820209098325986
846.162,0.31844495161626996
846.28,0.29924526854462863
846.398,0.2783460418337589
846.516,0.2622982248582955
846.634,0.24749875246661474
846.752,0.22445531035301236
846.87,0.19983226358960404
846.988,0.1862166787737854
847.106,0.16714509380649334
847.224,0.15337530171856067
847.342,0.14592474414134488
847.46,0.14587858336009502
847.578,0.15365946152801332
847.696,0.1533040702910424
847.814,0.155353986134458
847.932,0.16143042519419248
848.05,0.16441863925417713
848.168,0.18352844849779698
848.285,0.19732096254369674
848.403,0.19967439746238524
848.521,0.20630157677967087
848.639,0.21285940362007966
848.757,0.21722569219118093
848.875,0.21900635724201606
848.993,0.22480457048275043
849.111,0.24548174570378606
849.229,0.24577908366095028
849.347,0.238166975608187
849.465,0.23520801079811177
849.582,0.23000692120618377
849.7,0.2266636620830616
849.818,0.23637009137367804
849.936,0.24465846649003672
850.054,0.25879039971688667
850.172,0.2635336393976013
850.29,0.2721124790053502
850.408,0.2712438794394916
850.525,0.27371154196715397
850.643,0.27855840240743746
850.761,0.2937436773713223
850.879,0.29150189876330246
850.997,0.2913072420903877
851.115,0.2938940276959795
851.233,0.3001679173369399
851.35,0.2997749941713067
851.468,0.31719341889062486
851.586,0.3440976306237059
851.704,0.3785824760351691
851.822,0.41339756162328967
851.94,0.45727905571794136
852.057,0.5160611334474499
852.175,0.5744772748724967
852.293,0.6235067625301394
852.411,0.672331048447376
852.529,0.7230086773202087
852.647,0.7653497305167019
852.764,0.7995932701042074
852.882,0.8226751404720088
853.0,0.8403668955413697
853.118,0.8467370627384637
853.236,0.8385317870305291
853.353,0.8216754017658314
853.471,0.7999602635622932
853.589,0.7717676040184606
853.707,0.7365891102744008
853.824,0.7005873618342388
853.942,0.668605609318454
854.06,0.6442518133476263
854.178,0.6122398721066131
854.296,0.5818124309843619
854.413,0.5506245603509436
854.531,0.5105824181990879
854.649,0.46264306870969474
854.767,0.41221192552169206
854.884,0.37578263945937196
855.002,0.3339120396524462
855.12,0.28674699016959515
855.238,0.25357727052048534
855.355,0.23056809668957534
855.473,0.20136207507184878
855.591,0.16866884773445737
855.708,0.142090061123123
855.826,0.12461392930577975
855.944,0.0940561964048742
856.062,0.06864846881547572
856.179,0.0598571488480486
856.297,0.059939523183784316
856.415,0.053767835053081546
856.532,0.04491644395468639
856.65,0.04097281750085803
856.768,0.03491173596000703
856.886,0.022856618920383327
857.003,0.017581924871724594
857.121,0.02325999818119442
857.239,0.02541542944307954
857.356,0.02382915814785319
857.474,0.01927484692103341
857.592,0.017772905188919896
857.709,0.023021208435288095
857.827,0.029542672202479744
857.945,0.04173480184007945
858.062,0.051916152293492175
858.18,0.05786403874955866
858.298,0.06256565703779976
858.415,0.060574481247978325
858.533,0.057644068961265484
858.651,0.052948240986923474
858.768,0.04841446457610438
858.886,0.0472007354363468
859.003,0.0417040106937433
859.121,0.04690796407957267
859.239,0.04587593730624824
859.356,0.03685938236759208
859.474,0.03188870369104089
859.592,0.026472610764555198
859.709,0.02251192544738538
859.827,0.019954702659800816
859.944,0.024906299842052275
860.062,0.03455231526609882
860.18,0.03609521245480941
860.297,0.03281639130384936
860.415,0.037721702215833056
860.532,0.04728197865564501
860.65,0.06158861093317711
860.768,0.07574151218434247
860.885,0.08963824109269455
861.003,0.1017709305870656
861.12,0.10573195334966476
861.238,0.10241635470969604
861.356,0.10177531394269433
861.473,0.10567237289791415
861.591,0.1095955410208993
861.708,0.10753236652217624
861.826,0.10699413060325047
861.943,0.10542050300012856
862.061,0.10169613270233263
862.178,0.09432708576678675
862.296,0.09099435298547151
862.414,0.09402572984696983
862.531,0.09381956990555992
862.649,0.08927765629211001
862.766,0.09089995400577008
862.884,0.09313010578146821
863.001,0.09706143301937992
863.119,0.09830841144641245
863.236,0.1000424890345679
863.354,0.10171700508375844
863.471,0.10191635315420436
863.589,0.10269907794190816
863.706,0.11147202397731375
863.824,0.12799776101605456
863.941,0.13591236816117302
864.059,0.14614742759144045
864.176,0.14834494290743133
864.294,0.1459341901128311
864.411,0.14415005734460012
864.529,0.13676387626770797
864.646,0.13426418912040705
864.764,0.13574125458837205
864.881,0.13635508569709398
864.999,0.14519493647489884
865.116,0.15763785240432726
865.233,0.18281061944236826
865.351,0.20658246644749728
865.468,0.22442834828137548
865.586,0.2401659148181986
865.703,0.24571601045756403
865.821,0.24860868236530861
865.938,0.24023769611676576
866.056,0.23715789589817765
866.173,0.2323646815449859
866.29,0.22685836054720193
866.408,0.23747363473305305
866.525,0.23976416395920847
866.643,0.2364265357089374
866.76,0.23478110789446077
866.878,0.23176250103782323
866.995,0.2309892826090092
867.112,0.2239792367302379
867.23,0.22183528699374103
867.347,0.23663210757951836
867.465,0.2371716907424079
867.582,0.2482087911699693
867.699,0.2560132502635784
867.817,0.2681599903211688
867.934,0.2813763903456474
868.051,0.29441002619576806
868.169,0.30784509050028164
868.286,0.3213788800954079
868.404,0.3267682411707179
868.521,0.34660576295820017
868.638,0.36284429915152216
868.756,0.38149059015970865
868.873,0.40884755226362335
868.99,0.4383821821414699
869.108,0.46567795088343455
869.225,0.49866307046377606
869.342,0.5346719580359468
869.46,0.5844787248606331
869.577,0.626501696045263
869.694,0.6518523317887066
869.812,0.6637020800629658
869.929,0.6697637522082354
870.046,0.6660687547241761
870.164,0.6578446325443146
870.281,0.6494540644199486
870.398,0.6429221426758813
870.516,0.6322584451329414
870.633,0.6150111577556598
870.75,0.5933187845663208
870.867,0.5767152513567544
870.985,0.5594867299438039
871.102,0.5336748196279817
871.219,0.5084079381892619
871.337,0.4807847043597157
871.454,0.45895362621662256
871.571,0.4367880243615354
871.688,0.4156831074469174
871.806,0.3954112361663139
871.923,0.3785564022170057
872.04,0.36347535985275886
872.157,0.3368989404683068
872.275,0.3118890711497781
872.392,0.2859180580928862
872.509,0.26016489340453663
872.626,0.24206416260592417
872.744,0.22223777900031805
872.861,0.21227984489853638
872.978,0.1959749352952874
873.095,0.17074313805075342
873.213,0.15496775500624643
873.33,0.14082011538961292
873.447,0.13050154840807232
873.564,0.12066763285317672
873.681,0.10520800755633226
873.799,0.09726374301845656
873.916,0.08316587400287571
874.033,0.06843333377319111
874.15,0.06500843896893653
874.267,0.06002783033413481
874.385,0.05982254033151905
874.502,0.04949097666587714
874.619,0.04587463625334966
874.736,0.04703233951848874
874.853,0.05201909270170031
874.97,0.048810342962051535
875.088,0.05157691504706571
875.205,0.053219883815008785
875.322,0.05376441883358142
875.439,0.04548474570108421
875.556,0.04138980475457475
875.673,0.04108092549812753
875.791,0.03827872832677828
875.908,0.03441775523400665
876.025,0.03343657828324094
876.142,0.037537417934414286
876.259,0.04116830874384887
876.376,0.04307957923755509
876.493,0.03922779637137583
876.61,0.04133219384032252
876.728,0.03897973190445708
876.845,0.04349721374357915
876.962,0.04502555597975072
877.079,0.04314570852471712
877.196,0.04204891399102571
877.313,0.046894190541842073
877.43,0.047559383124676564
877.547,0.04795382257023896
877.664,0.05113719119336051
877.781,0.0519241409144546
877.898,0.053152258197699136
878.016,0.045733712238453954
878.133,0.04300529757127125
