wavelength_nm,intensity
792.446,0.26096338826023413
792.565,0.22586354497224922
792.684,0.19622234929066742
792.803,0.17203980121548876
792.922,0.15331590074671306
793.041,0.13552800111033225
793.16,0.13171371315125618
793.279,0.13109230181024725
793.398,0.1391249203845997
793.518,0.16181958920860454
793.637,0.19250929124359434
793.756,0.21940036588757791
793.875,0.23755534923951446
793.994,0.2422472554332211
794.113,0.23149846793284568
794.232,0.21503044097338603
794.351,0.1936994944168977
794.47,0.17990566606103392
794.589,0.17307703195988638
794.708,0.16972379112478475
794.827,0.1706057943184749
794.946,0.17602435087061935
795.066,0.17685686666920897
795.185,0.17726341501630047
795.304,0.1757806724314535
795.423,0.17022054434395817
795.542,0.1656946401717912
795.661,0.1573293911316366
795.78,0.15741834315827305
795.899,0.15495211689864385
796.018,0.15060474320247252
796.137,0.13869644724221053
796.256,0.1337395642367632
796.375,0.12886161049438757
796.494,0.12171412722733918
796.613,0.11579756461057564
796.732,0.11966635134653453
796.851,0.11629431782974915
796.97,0.11596669874572932
797.089,0.11436744153444321
797.208,0.12385336082567133
797.327,0.13059993355013327
797.446,0.13523796738967986
797.565,0.14760229909213385
797.684,0.1603712998735111
797.803,0.1631482318036448
797.922,0.1636362151046992
798.041,0.15519642176053244
798.16,0.15293065077219642
798.279,0.13951017035911628
798.398,0.12849076824249517
798.517,0.12488319978194024
798.636,0.12863985685051949
798.755,0.1341072743750416
798.874,0.14029257233988263
798.993,0.13856803058403827
799.112,0.141599916562348
799.231,0.14353806846666417
799.35,0.14122468935139598
799.469,0.1375425765868289
799.588,0.13459776336698714
799.707,0.13090061645707304
799.826,0.12789754592401176
799.945,0.124346355508508
800.064,0.12597192247415134
800.183,0.14362889976146884
800.302,0.15429061450337625
800.421,0.16913370091991536
800.54,0.17845800314866342
800.659,0.18901698456403304
800.778,0.1935240960545162
800.897,0.19833063760649355
801.016,0.18743902572532176
801.135,0.18554848194793772
801.254,0.1791094827803663
801.373,0.18539062342179435
801.492,0.18924813454874298
801.611,0.1972989193820564
801.729,0.20109566750489427
801.848,0.2030607555862905
801.967,0.1865852115541573
802.086,0.1708043703215997
802.205,0.15376504583895445
802.324,0.13751236345310747
802.443,0.11262934343354009
802.562,0.09636801249975144
802.681,0.0831850964551521
802.8,0.06691680469152463
802.919,0.05809284856067391
803.038,0.050792820596967346
803.157,0.04804029162196813
803.276,0.04677143132454239
803.394,0.0446954058661104
803.513,0.04854227888297722
803.632,0.049071028117412
803.751,0.04398315168397908
803.87,0.04530171634596059
803.989,0.03900298264068961
804.108,0.03387532378148025
804.227,0.036629684774134
804.346,0.043589184701876865
804.465,0.05300792168042252
804.583,0.06122047074563031
804.702,0.06250866353695579
804.821,0.0672127086174443
804.94,0.06416675882532061
805.059,0.06493734216762168
805.178,0.06791224870941805
805.297,0.07051984839196866
805.416,0.07747110785708279
805.535,0.08667849894467586
805.653,0.08894400536509736
805.772,0.100141421171374
805.891,0.11493995730294712
806.01,0.13523664964546972
806.129,0.15242808671399766
806.248,0.18058151077130585
806.367,0.20979170996196297
806.485,0.23390596030271307
806.604,0.25123981109197047
806.723,0.26336307767305006
806.842,0.26097150334433306
806.961,0.2584327196757601
807.08,0.24644622850204928
807.198,0.2432409310564264
807.317,0.2328662255484576
807.436,0.2281086525957582
807.555,0.22648883106152035
807.674,0.2324261732550364
807.793,0.23584279041204037
807.912,0.2575747551380155
808.03,0.2776905492391891
808.149,0.30415075267679265
808.268,0.3281152879867958
808.387,0.3498923551488119
808.506,0.35654068713269615
808.624,0.3524076576346199
808.743,0.33151656745643165
808.862,0.3100573118686717
808.981,0.2855711816843843
809.1,0.26807404981827904
809.219,0.2605376656672779
809.337,0.25690326865654345
809.456,0.250280208835372
809.575,0.2446544139888842
809.694,0.24435509155429044
809.812,0.2502742674888455
809.931,0.2609273199395341
810.05,0.27500377257027686
810.169,0.29687355029526574
810.288,0.30826327586795654
810.406,0.316304771987328
810.525,0.31481587280215295
810.644,0.31592412222567057
810.763,0.3180359008510999
810.882,0.32836822486771916
811.0,0.33935578705237823
811.119,0.3549105973089086
811.238,0.36713659721652625
811.357,0.37996521578346887
811.475,0.37909271655752086
811.594,0.38778882442220947
811.713,0.39511494579215334
811.832,0.403858035361051
811.95,0.4097177011369404
812.069,0.4070160475604414
812.188,0.4036409895569418
812.307,0.3891369054603323
812.425,0.379314078371142
812.544,0.37147325277686327
812.663,0.3613917131031601
812.782,0.35889740544790477
812.9,0.3623929518679795
813.019,0.36865916599095994
813.138,0.38060139640515206
813.257,0.3920587756319036
813.375,0.414602584206615
813.494,0.42630238902708667
813.613,0.4389405750862996
813.731,0.44183412926977156
813.85,0.44974345019463313
813.969,0.45309304012029716
814.088,0.4568504312384983
814.206,0.4624313389027448
814.325,0.47160478088219904
814.444,0.48144661590687143
814.562,0.4912471070318395
814.681,0.4921674296385185
814.8,0.503268374336001
814.918,0.501031526419812
815.037,0.49898511101135146
815.156,0.49487150061768004
815.274,0.48894690213241887
815.393,0.4839331222860963
815.512,0.481982549554223
815.631,0.48002258048150775
815.749,0.4823160216965453
815.868,0.4836773459000695
815.987,0.4832320669710637
816.105,0.4760602608447253
816.224,0.46678555363797647
816.343,0.449527088829253
816.461,0.4337162869329002
816.58,0.40856552223972953
816.698,0.3869628158484487
816.817,0.37507091450587826
816.936,0.35536752181010045
817.055,0.3357292770774931
817.173,0.3227906233651382
817.292,0.3088039644375536
817.41,0.29977544136086187
817.529,0.29826524380311104
817.648,0.29954074809361286
817.766,0.3113771130676527
817.885,0.31386036036769605
818.004,0.3216744650386931
818.122,0.3275291194327991
818.241,0.3297185744758534
818.359,0.3304547719521877
818.478,0.33528156387028796
818.597,0.3135540061141944
818.715,0.3209898788175709
818.834,0.32638874537861573
818.953,0.4309782242230227
819.071,0.5601285981113726
819.19,0.696195620228089
819.308,0.7996693582882107
819.427,0.8333947383677954
819.546,0.7797837637927216
819.664,0.6791633482306612
819.783,0.544905200013128
819.901,0.4789702210689527
820.02,0.40804030396926716
820.138,0.36518424549065304
820.257,0.33342193600210845
820.376,0.3081546566824983
820.494,0.2816075957402255
820.613,0.26741734942773315
820.731,0.27613538208771743
820.85,0.2887873494468307
820.969,0.31107244543702806
821.087,0.34035593608624937
821.206,0.3738195455646566
821.324,0.39463818596079936
821.443,0.39791699011878656
821.561,0.39245657087111263
821.68,0.37160557174718006
821.798,0.330543619470432
821.917,0.2968092770555556
822.035,0.2877409266128004
822.154,0.2943012659449721
822.273,0.3083488630269635
822.391,0.32645593271966106
822.51,0.3312881054379847
822.628,0.3192891793846484
822.747,0.2975120479955591
822.865,0.2773205358955514
822.984,0.27288142568521234
823.102,0.2643651723962511
823.221,0.27131982509157715
823.339,0.2776912782319846
823.458,0.28502178456098554
823.576,0.2865866961494157
823.695,0.2903860575900423
823.813,0.29113286110250713
823.932,0.2875679970139995
824.05,0.27943149989456106
824.169,0.282031888243765
824.287,0.280499765890715
824.406,0.2825382530575753
824.524,0.2807580673063
824.643,0.2800070940885707
824.761,0.2737680313964671
824.88,0.2745449031996259
824.998,0.27672746759272837
825.117,0.28477961289838516
825.235,0.2790648660252583
825.354,0.2800478309042158
825.472,0.2803035190020128
825.591,0.28265960248932887
825.709,0.2781814140709923
825.828,0.27481637883105586
825.946,0.2727098268412069
826.064,0.27309956940168123
826.183,0.2661294713920809
826.301,0.2706254149004519
826.42,0.2747254592480187
826.538,0.27815836339581274
826.657,0.2772852377471397
826.775,0.2669950993067457
826.894,0.2581187969516916
827.012,0.24602769318327267
827.13,0.23820879238429016
827.249,0.23434324538884316
827.367,0.22675800026546156
827.486,0.21966261771130272
827.604,0.22269962269829252
827.723,0.23231845123365027
827.841,0.2433323231726641
827.959,0.26219840394186644
828.078,0.2829381150749375
828.196,0.29776878066391865
828.315,0.3024388696892254
828.433,0.3041660247628589
828.552,0.2966716109342823
828.67,0.2801059696569652
828.788,0.2512373861040276
828.907,0.22158938626079117
829.025,0.17987632445859436
829.143,0.14526855721617649
829.262,0.12352051952661124
829.38,0.11380375405973439
829.499,0.10331857740597777
829.617,0.09933199644242416
829.735,0.09965018831635611
829.854,0.103572497769403
829.972,0.10828554762517426
830.091,0.1222475709585138
830.209,0.1407782425715357
830.327,0.16394916237503732
830.446,0.19040334821301763
830.564,0.20933628825200912
830.682,0.22662448763979057
830.801,0.23507323598626428
830.919,0.23162183186787222
831.037,0.2201127522662159
831.156,0.20151256744256235
831.274,0.18605765111004383
831.392,0.17935949801942447
831.511,0.17514385817922695
831.629,0.1794632279370605
831.747,0.18206181447538644
831.866,0.18788773088153304
831.984,0.19937087089720762
832.102,0.20266917161689157
832.221,0.2013100193926225
832.339,0.19405622934688777
832.457,0.19263944623212215
832.576,0.18782306700076842
832.694,0.17941603272237516
832.812,0.17652026555909966
832.93,0.17127011039843515
833.049,0.1664636567955997
833.167,0.15969346169298465
833.285,0.15176316512357813
833.404,0.1570397521278135
833.522,0.1625237184691105
833.64,0.17195925308194598
833.759,0.18552749266712823
833.877,0.19750182144039014
833.995,0.22479218578589855
834.113,0.24927554991057932
834.232,0.27080721016546755
834.35,0.2869892203677184
834.468,0.29436748562386084
834.586,0.2992475770615117
834.705,0.294012820794252
834.823,0.2827055226522538
834.941,0.2748598364764001
835.059,0.2606522011278784
835.178,0.2511471211593508
835.296,0.23920650964461077
835.414,0.2345712399230625
835.532,0.23825799607379622
835.651,0.2472449148820669
835.769,0.25614851946820627
835.887,0.2667384540240998
836.005,0.28178538625265304
836.124,0.30120976046807174
836.242,0.3142095432385431
836.36,0.335656010003132
836.478,0.3541495200524828
836.596,0.37587098639237715
836.715,0.3877908163887565
836.833,0.3927680033484403
836.951,0.39779843623956135
837.069,0.39879157468229265
837.188,0.399977024900921
837.306,0.4161696842894598
837.424,0.4209395253278998
837.542,0.43104335585090736
837.66,0.43365955556839086
837.779,0.4376407303988364
837.897,0.4368235071727008
838.015,0.43270253050656393
838.133,0.4262318422072371
838.251,0.4342684777450334
838.369,0.43333975127424107
838.487,0.43071529849285295
838.606,0.42579438000971204
838.724,0.43106160069004845
838.842,0.4325765492608652
838.96,0.4279155962076827
839.078,0.4207871640494254
839.196,0.43304025093432996
839.315,0.4391982447264754
839.433,0.4379657032351295
839.551,0.4389870307003866
839.669,0.4416733897628229
839.787,0.44635177308373564
839.905,0.4396687274813832
840.023,0.43460310534927804
840.142,0.435428362502302
840.26,0.42597464919704414
840.378,0.415687167247751
840.496,0.41133128206056846
840.614,0.4062869583010382
840.732,0.4094537835918559
840.85,0.4113715219734278
840.968,0.4170741064461049
841.087,0.4237965071114861
841.205,0.42795495957248264
841.323,0.43492229152247536
841.441,0.4459544805206608
841.559,0.45669475653002545
841.677,0.4660224492994959
841.795,0.47823043374836055
841.913,0.4904521994971268
842.031,0.5110918337947622
842.149,0.5235121755466534
842.267,0.534356437728002
842.385,0.5504068991584689
842.504,0.560007085812354
842.622,0.5604546100635359
842.74,0.5601347664792984
842.858,0.5609324610325206
842.976,0.5622669998591752
843.094,0.5516525252485861
843.212,0.54368907160085
843.33,0.5443583494959001
843.448,0.5439038250262628
843.566,0.5445142191853707
843.684,0.5511363922151062
843.802,0.5630518372524281
843.92,0.5686184879942605
844.038,0.5727832046824861
844.156,0.5800023585670415
844.274,0.5866884267145016
844.392,0.5899811629726014
844.51,0.5842083095864659
844.628,0.5786947952075661
844.746,0.5704532098709103
844.864,0.550726163911877
844.982,0.525719627245159
845.1,0.5045994171506378
845.218,0.47819846350298634
845.336,0.44930309457318013
845.454,0.42443186521458504
845.572,0.39872248225289525
845.69,0.37291099238739056
845.808,0.3489393060587239
845.926,0.3280859520441122
846.044,0.3152332690449905
846.162,0.2971111181017487
846.28,0.28095405523990313
846.398,0.270035765608761
846.516,0.25505261892942643
846.634,0.23497540266835332
846.752,0.21756486793820257
846.87,0.20424863212421557
846.988,0.19498785701757915
847.106,0.18280231421823026
847.224,0.17191096076416812
847.342,0.16570086431752512
847.46,0.16169327016421622
847.578,0.15471893799576786
847.696,0.14878759966076702
847.814,0.1533738988414316
847.932,0.16068075190717881
848.05,0.16907382197424614
848.168,0.1788832338175445
848.285,0.1908863780360579
848.403,0.19854966563107349
848.521,0.20176221978065717
848.639,0.20427004836710072
848.757,0.2171013234251446
848.875,0.22852565304779948
848.993,0.23337254408114602
849.111,0.23923925130719687
849.229,0.25259296291604894
849.347,0.25620768045366527
849.465,0.25816676273494427
849.582,0.2576439581885243
849.7,0.26318868413506047
849.818,0.2644731091438931
849.936,0.2529070984173857
850.054,0.2546049624232604
850.172,0.2652293502289106
850.29,0.2697053990103644
850.408,0.2799984091956579
850.525,0.2882843609771282
850.643,0.29864314554831484
850.761,0.302592999242624
850.879,0.3009326110316146
850.997,0.3085946457811848
851.115,0.3102975211688416
851.233,0.3150059727804509
851.35,0.32183737099959986
851.468,0.33307941160992227
851.586,0.35226198665434705
851.704,0.3778403376984706
851.822,0.41159037316140634
851.94,0.4522799195474237
852.057,0.5000486691237052
852.175,0.5541248690957719
852.293,0.6034759624698238
852.411,0.653727225296527
852.529,0.698817391310153
852.647,0.7362908834373598
852.764,0.7703641530252554
852.882,0.7937656851076792
853.0,0.8093375595779349
853.118,0.812987356788027
853.236,0.8038794288257525
853.353,0.7925044770296963
853.471,0.7662200380084851
853.589,0.733447112424602
853.707,0.701593148975054
853.824,0.6709469285350471
853.942,0.6431202367703239
854.06,0.6224510510362135
854.178,0.5955414421376566
854.296,0.5673207304802975
854.413,0.5336896057661904
854.531,0.4905111723340217
854.649,0.4409582612747291
854.767,0.39411212280061747
854.884,0.3502045333191197
855.002,0.3128230157636612
855.12,0.2704520412211702
855.238,0.23775553920946757
855.355,0.21620059174533046
855.473,0.19116899816970195
855.591,0.1626781669260272
855.708,0.137002890664019
855.826,0.11161710118533981
855.944,0.093385688947261
856.062,0.07621636800792231
856.179,0.06780628317469248
856.297,0.058199363150620194
856.415,0.053516903777667
856.532,0.041781496146162264
856.65,0.03541006372145977
856.768,0.03347566759374068
856.886,0.029804163734712348
857.003,0.027162956337045113
857.121,0.025839650591384627
857.239,0.022065057084612573
857.356,0.029775297214335146
857.474,0.032475820350036856
857.592,0.037524664074163785
857.709,0.04396559506503169
857.827,0.043211328110482755
857.945,0.04300320513728089
858.062,0.04474103574272875
858.18,0.04627663843443029
858.298,0.05173336383189758
858.415,0.05272494592915176
858.533,0.050178813969397856
858.651,0.05089921258547913
858.768,0.0468153660814538
858.886,0.04656792691219156
859.003,0.047099692528857734
859.121,0.04120486261988575
859.239,0.044910663581088923
859.356,0.04261301827062482
859.474,0.043604004159533125
859.592,0.043959788803143544
859.709,0.0398947477742444
859.827,0.03890246256451664
859.944,0.035990885188983565
860.062,0.03253467418468271
860.18,0.03382407168092369
860.297,0.03352000937123069
860.415,0.04209438853098192
860.532,0.0499716948337684
860.65,0.06296167213203646
860.768,0.07411384952226828
860.885,0.08606569618726093
861.003,0.09575732813863246
861.12,0.09750538640065914
861.238,0.0986658429825246
861.356,0.09500409744434286
861.473,0.10014108547048725
861.591,0.10253605702504753
861.708,0.09387689761028692
861.826,0.09199719800911385
861.943,0.08950583871944408
862.061,0.0827778739673424
862.178,0.07875683766334594
862.296,0.0742316149997968
862.414,0.08571617990526267
862.531,0.0859414598698365
862.649,0.08142524181491319
862.766,0.0904613460227377
862.884,0.09035330354024404
863.001,0.08472081519543734
863.119,0.08894558583247685
863.236,0.0870871499800828
863.354,0.09146159242456697
863.471,0.1011147330705547
863.589,0.10574802122300077
863.706,0.12437579678293824
863.824,0.13623602199806017
863.941,0.14467034134223672
864.059,0.1529267566331406
864.176,0.15109024901443147
864.294,0.14614292615434066
864.411,0.14312435885772418
864.529,0.12530467546699564
864.646,0.12213952525324606
864.764,0.12513900105448528
864.881,0.13329268301885105
864.999,0.14565028787586903
865.116,0.16539529590276425
865.233,0.18828807811168563
865.351,0.20378844576894745
865.468,0.20894594785020273
865.586,0.22246306116710757
865.703,0.23119054634555042
865.821,0.23351787056523493
865.938,0.22380347078470292
866.056,0.2222977143636276
866.173,0.22646484212015
866.29,0.22833049279313733
866.408,0.22838077041547555
866.525,0.23683012390499908
866.643,0.24187236420526084
866.76,0.23576114792622416
866.878,0.22239720936271012
866.995,0.21710723327325276
867.112,0.21412499849455846
867.23,0.21470773543126945
867.347,0.2161944003569682
867.465,0.22328629580620338
867.582,0.23721559527470515
867.699,0.25117120449756425
867.817,0.25753206462930195
867.934,0.26666421888666825
868.051,0.27757416083131603
868.169,0.285248629412747
868.286,0.29059092619722604
868.404,0.29562752869298303
868.521,0.3136962295136894
868.638,0.34161668049573424
868.756,0.3615872007028349
868.873,0.38886431554857304
868.99,0.42605582282792837
869.108,0.45843264505991
869.225,0.4911239314987329
869.342,0.5185357272298711
869.46,0.5522173879934269
869.577,0.5818404559360182
869.694,0.5996091002725076
869.812,0.6075654590791943
869.929,0.611116813299213
870.046,0.616430921061166
870.164,0.6146439008375575
870.281,0.6009473318082417
870.398,0.590380370701991
870.516,0.575741661897597
870.633,0.5590332524171004
870.75,0.5411753572402819
870.867,0.5213868272318206
870.985,0.5154578999651162
871.102,0.4947717061948951
871.219,0.46893255910699316
871.337,0.44136323245874176
871.454,0.42103660533140297
871.571,0.4013063326361612
871.688,0.37608295908476264
871.806,0.3538075308668196
871.923,0.3383807822771534
872.04,0.31660273370110636
872.157,0.29788914508495423
872.275,0.2763153103165371
872.392,0.26833923359174994
872.509,0.2600568361555179
872.626,0.236576170618924
872.744,0.2217501614204143
872.861,0.20443725401242324
872.978,0.1867879576022932
873.095,0.16995927495901975
873.213,0.14992831935683726
873.33,0.13322304198995355
873.447,0.11570529435160953
873.564,0.09134011993043419
873.681,0.08189069696164172
873.799,0.06834950253151917
873.916,0.06626723565254806
874.033,0.07335629395025332
874.15,0.07456607597980243
874.267,0.07186540772040392
874.385,0.0638411947311302
874.502,0.05918390749179631
874.619,0.051026119070407244
874.736,0.042644924918185854
874.853,0.0427285649899868
874.97,0.04621369837288353
875.088,0.041979679998026195
875.205,0.047061104238065726
875.322,0.04904212343773712
875.439,0.05137204027485579
875.556,0.0428776122853292
875.673,0.04730053649635786
875.791,0.04611810873190106
875.908,0.042628654125798256
876.025,0.038929931924793076
876.142,0.045595763018616106
876.259,0.050238136057706634
876.376,0.04758149092202503
876.493,0.04072793750725999
876.61,0.04951890646428078
876.728,0.05005625677421781
876.845,0.052514900589313185
876.962,0.054038071270895924
877.079,0.05663401464552901
877.196,0.05267837433705689
877.313,0.04606260578898427
877.43,0.04235252767746771
877.547,0.04339075476034271
877.664,0.0428139964842726
877.781,0.04613790278740941
877.898,0.05071782121670067
878.016,0.049476439799687646
878.133,0.04588570332083613
878.25,0.04723181879059024
878.367,0.04397112994725764
