wavelength_nm,intensity
792.446,265.2454259669359
792.565,223.5526986942087
792.684,188.04265540416543
792.803,158.71529609680616
792.922,135.57062077213067
793.041,105.80785020936011
793.16,101.03555583706574
793.279,106.22083722234709
793.398,116.25287185438177
793.518,144.3688891703991
793.637,181.09702769853754
793.756,213.1974605989704
793.875,229.63209263360244
793.994,229.13425713576692
794.113,221.76975497126477
794.232,202.2225688240786
794.351,173.8788458803557
794.47,154.69616189767177
794.589,145.377547179057
794.708,140.6589324604422
794.827,137.65114025265
794.946,142.31347791498766
795.066,151.99486319637293
795.185,157.5775471790569
795.304,154.40092380243357
795.423,149.08144328295307
795.542,140.49875930026906
795.661,129.59313159464136
795.78,122.36888917039904
795.899,111.72559912710904
796.018,104.07018787169778
796.137,92.97668137819127
796.256,85.84767704918696
796.375,80.82170302321296
796.494,79.46585886736882
796.613,79.39226579377575
796.732,79.4139108154208
796.851,79.64940865091863
796.97,84.80352120503117
797.089,83.97235237386232
797.208,91.66239566390561
797.327,103.07624847775848
797.446,112.56023116174111
797.565,123.0251662266761
797.684,121.95849956000947
797.803,125.0918328933428
797.922,118.07451687602678
798.041,110.23901904052894
798.16,105.95676795827788
798.279,99.93858614009606
798.398,94.41217921368906
798.517,91.13339133490122
798.636,84.22689782840777
798.755,96.5403177418276
798.874,99.5801445816544
798.993,105.74551254702243
799.112,99.9065515080614
799.231,97.84507964658954
799.35,97.44507964658956
799.469,87.24334804485804
799.588,86.66499306650306
799.707,95.70049090200087
799.826,100.03728743879745
799.945,99.57408397559398
800.064,100.4320926336026
800.183,112.70135670286666
800.302,125.29269869420864
800.421,122.14897575048565
800.54,130.3939973955072
800.659,130.0719194734293
800.778,135.90568570719546
800.897,133.31261211412186
801.016,144.36629176780156
801.135,150.36629176780158
801.254,158.49702769853755
801.373,162.87365107516095
801.492,173.54810994961974
801.611,182.15070735221718
801.729,189.3281965297063
801.848,190.17062077213052
801.967,178.78014458165433
802.086,155.18187618338595
802.205,126.37062077213056
802.324,100.0407506422605
802.443,70.74443256578917
802.562,51.93518096447431
802.681,35.738677428921285
802.8,29.832244847771726
802.919,12.963476683920895
803.038,2.14702259914385
803.157,-6.793902387194983
803.276,-12.241800546206957
803.394,-19.058925023973064
803.513,-21.470893947307157
803.632,-26.771025566807225
803.751,-30.267190037115768
803.87,-27.769562887231558
803.989,-25.49991612004696
804.108,-22.734840876025878
804.227,-16.040565235174785
804.346,-10.870492123471989
804.465,-4.8077223638925
804.583,-5.4726017911532345
804.702,-2.6734374040344107
804.821,8.784638771178551
804.94,16.24355482663961
805.059,18.185212265429364
805.178,22.260896502343343
805.297,16.608821732645186
805.416,18.75182974617494
805.535,20.021159032504958
805.653,15.681813490219206
805.772,23.070341658266358
805.891,41.69767793104047
806.01,63.99137907574925
806.129,102.13457163801482
806.248,146.57772776890567
806.367,194.89768014649644
806.485,226.0579002680982
806.604,243.86085830787823
806.723,254.06381634765847
806.842,253.8269475476119
806.961,250.60219995968635
807.08,237.4086212029295
807.198,227.72240175353204
807.317,207.32189658984882
807.436,186.64173774651192
807.555,187.40919795079415
807.674,196.57925555767383
807.793,212.81165082689114
807.912,243.13322358528575
808.03,273.8444067332907
808.149,306.0958496215556
808.268,328.8165565790846
808.387,350.9537137530639
808.506,364.79216962834187
808.624,361.4401493131438
808.743,345.98509869491545
808.862,323.27550262214163
808.981,304.74512732858875
809.1,274.5004663207502
809.219,255.2748529319593
809.337,242.7063824003112
809.456,230.28769541844662
809.575,228.11056687814056
809.694,236.4364686408647
809.812,248.02384226506052
809.931,270.16013363817416
810.05,286.9379834528461
810.169,306.38336573505035
810.288,318.4962804847871
810.406,327.2490220743508
810.525,322.64505370720457
810.644,317.3285312275042
810.763,314.75053688633204
810.882,317.20630877892626
811.0,333.9884875979275
811.119,352.35681360307603
811.238,367.6368279199128
811.357,383.1705218904294
811.475,385.3578955146257
811.594,380.88119987475284
811.713,382.0010410314169
811.832,393.3780250452239
811.95,406.85630776032974
812.069,413.093897834743
812.188,419.5825701602385
812.307,419.65306066755227
812.425,417.1746334259484
812.544,409.31179059992917
812.663,415.45760578256784
812.782,423.89519585698156
812.9,435.55702835563784
813.019,453.37730241273573
813.138,473.12052019277735
813.257,484.78581589489704
813.375,496.48141462731985
813.494,502.3900003727298
813.613,508.3288891484428
813.731,497.9560896124675
813.85,500.2568831500854
813.969,499.06330439333095
814.088,502.6065221733729
814.206,514.2951944988695
814.325,524.0107066512057
814.444,525.4110672883905
814.562,527.6218175359647
814.681,518.5113556623271
814.8,516.0727552605507
814.918,497.74237996699947
815.037,486.2691475305912
815.156,485.68422678249465
815.274,481.99021512530715
815.393,483.63473160664785
815.512,491.93985414859463
815.631,498.6934615390264
815.749,507.6046446870339
815.868,506.69764601685984
815.987,508.0486560046945
816.105,499.57802097088404
816.224,481.10132533101284
816.343,468.2982227647344
816.461,444.6656829690188
816.58,419.6478617880218
816.698,399.08198865897316
816.817,373.90399431780327
816.936,358.2731861238195
817.055,338.8674861549438
817.173,326.82109354537533
817.292,318.61625937736505
817.41,313.584585382515
817.529,312.8689287036822
817.648,309.3264321980097
817.766,306.69389240229384
817.885,316.2102703554956
818.004,325.8383366203857
818.122,331.2335024523753
818.241,331.01568127137807
818.359,339.8472992721141
818.478,341.8971401033965
818.597,318.7679882783571
818.715,336.0184633810807
818.834,353.53016411135417
818.953,483.4842127517603
819.071,636.7326464692801
819.19,798.3603317348811
819.308,923.0692443375576
819.427,964.6362741320919
819.546,898.2331692278283
819.664,779.646476975694
819.783,605.8115283448888
819.901,508.7723629414535
820.02,415.95937010092007
820.138,359.845552374777
820.257,321.0408597225568
820.376,286.1936013121213
820.494,265.63638619172923
820.613,253.50601089817687
820.731,246.7107005396893
820.85,252.45305251886407
820.969,280.20406250669674
821.087,317.6944664339233
821.206,351.49829027456974
821.324,372.06661627971823
821.443,386.2280158779404
821.561,380.6716665584138
821.68,354.5343648579348
821.798,319.39619735659016
821.917,289.8883328855485
822.035,272.7086069426453
822.154,254.23883770969866
822.273,242.89374380142715
822.391,242.1200784645842
822.51,250.88667286800083
822.628,251.77967419782442
822.747,253.089991544964
822.865,262.4981443899392
822.984,275.782487711105
823.102,276.10059726603697
823.221,270.9996592019215
823.339,272.6727471118322
823.458,276.6168306927387
823.576,265.92368483641576
823.695,264.9552143047683
823.813,274.0075229939001
823.932,272.17844640164674
824.05,268.24114470116825
824.169,267.32029321714
824.287,268.12844606211604
824.406,264.1348673053604
824.524,252.45037945769565
824.643,254.35117299531242
824.761,247.59309207405477
824.88,247.16401548180173
824.998,249.63623759084732
825.117,259.2894120808452
825.235,267.4707250989814
825.354,259.3836398487192
825.472,254.91213901404163
825.591,254.16964250836838
825.709,241.90073907628837
825.828,242.59027720265013
825.946,235.63565948485603
826.064,234.02389890991907
826.183,231.18096950381323
826.301,226.44366780333502
826.42,230.3981409946317
826.538,235.57772241103652
826.657,240.4239704941079
826.775,240.43385494081548
826.894,230.81430215808587
827.012,217.39994418055102
827.13,201.0799584973884
827.249,192.19893385318682
827.367,177.20881829989435
827.486,176.73298846088755
827.604,180.9497993145213
827.723,194.76141536296024
827.841,212.57129980966755
827.959,231.71192018711065
828.078,251.4516747636879
828.196,274.4944596432954
828.315,282.81862980428815
828.433,294.3194233419042
828.552,288.87909133839474
828.67,269.6803177764438
828.788,232.84431477726338
828.907,192.34857151834268
829.025,152.25953755688226
829.143,117.58736060950342
829.262,84.23670052700668
829.38,66.30378554059742
829.499,54.722998456220104
829.617,41.393330789536236
829.735,35.05779889232726
829.854,46.158373866809
829.972,61.95176627061955
830.091,78.2780738288211
830.209,101.07431327019177
830.327,123.31545351244282
830.446,149.54340485188143
830.564,171.1979665032896
830.682,181.58295394532485
830.801,189.7073353267541
830.919,172.82747762110182
831.037,148.68118190423988
831.156,125.75450893227942
831.274,112.900826760619
831.392,105.37371117684461
831.511,113.4390669128508
831.629,120.76733543704881
831.747,138.68890620977743
831.866,135.3993114884982
831.984,134.6776821351845
832.102,135.60280602862417
832.221,130.92057171092964
832.339,118.333286157368
832.457,111.32792149542986
832.576,101.93926422954473
832.694,101.95045647456527
832.812,94.0548056445709
832.93,92.28550455425858
833.049,94.32646651722632
833.167,91.08271207582851
833.285,89.04405503506126
833.404,86.8541269379128
833.522,90.70206581059497
833.64,103.18447516293594
833.759,120.33457094340932
833.877,149.83744632670374
833.995,178.38515541717732
834.113,203.456026301147
834.232,223.4105527632709
834.35,236.9797978401133
834.468,241.08757105548375
834.586,238.71309318860295
834.705,236.83471921782598
834.823,231.6619729526767
834.941,209.04160763990836
835.059,190.33552804142573
835.178,172.37923199272677
835.296,165.59696191805384
835.414,165.2640424927316
835.532,172.51813605442237
835.651,187.3808876247711
835.769,201.68173443321515
835.887,219.23626089533872
836.005,250.7907873574622
836.124,277.45180732607923
836.242,300.622784004653
836.36,322.98943167889774
836.478,345.71971571677886
836.596,362.49761880227885
836.715,373.8755218877788
836.833,383.90710462695824
836.951,400.6538388812892
837.069,410.98585452090134
837.188,408.4347532773967
837.306,415.75724510748506
837.424,428.1576590154955
837.542,433.8784192438521
837.66,439.8485301215593
837.779,446.2411518217774
837.897,446.3714358596579
838.015,446.59609219191066
838.133,440.77919008260517
838.251,446.45752606853785
838.369,445.99733391594236
838.487,448.0090032352084
838.606,451.5661270999291
838.724,454.92065356205234
838.842,447.7063488553443
838.96,444.93273678932906
839.078,444.8500338142227
839.196,455.685079756865
839.315,456.2257534051348
839.433,452.7993274863053
839.551,443.818789013363
839.669,439.1759128780832
839.787,437.39017959994624
839.905,431.82003073739384
840.023,430.2801849051443
840.142,434.2199927525485
840.26,428.10438934454146
840.378,420.9636777114262
840.496,414.26798772333257
840.614,416.55498171792306
840.732,420.8160016865397
840.85,417.53329871143353
840.968,419.76921045494197
841.087,431.08131267464086
841.205,441.68518978611473
841.323,458.0535690620907
841.441,465.8383985545167
841.559,478.14530596902074
841.677,490.7136852449969
841.795,498.1444021833106
841.913,509.53442648093176
842.031,531.3486932027953
842.149,545.4556006172998
842.267,556.7521184214146
842.385,572.159458736352
842.504,582.9962362807272
842.622,594.3776025696912
842.74,597.7840770837636
842.858,597.1957464030307
842.976,606.750272865155
843.094,599.8242798467597
843.212,597.5329188629964
843.33,605.6675319052069
843.448,609.3908895361624
843.566,608.8908705437411
843.684,612.443665404134
843.802,618.9938628619295
843.92,625.602068977734
844.038,634.8223963056596
844.156,649.8894768803384
844.274,654.3418388402985
844.392,655.5812137872715
844.51,655.1928831065388
844.628,651.6002234214769
844.746,645.8716330004842
844.864,614.144774181223
844.982,586.2369629810096
845.1,544.7585890102334
845.218,493.48887304811507
845.336,452.3611484279881
845.454,424.4680558424931
845.572,392.6901147721496
845.69,372.0844680741003
845.808,345.69786899509864
845.926,329.9606205654478
846.044,309.40865352107824
846.162,299.6116648316868
846.28,288.8917324193515
846.398,272.63413766935383
846.516,251.21377235658548
846.634,227.9120217624317
846.752,203.3089724669793
846.87,179.36912663473055
846.988,162.77560114880208
847.106,157.48510596590393
847.224,142.28119086958594
847.342,136.36472166071383
847.46,133.40755981114904
847.578,132.9525624637485
847.696,127.27332269210552
847.814,124.5871565135362
847.932,131.91830635228283
848.05,147.2425297841031
848.168,150.37367962285
848.285,163.62344418021166
848.403,176.4385767029413
848.521,190.0805490525105
848.639,193.9562876358459
848.757,205.88397427112926
848.875,222.561444456196
848.993,243.74540814775645
849.111,252.93629824624338
849.229,262.8735086910507
849.347,277.18820831334733
849.465,282.86221529495134
849.582,285.9033218436549
849.7,290.73577038370036
849.818,295.11886827439514
849.936,305.9850830482069
850.054,312.0538952246159
850.172,321.3426208209384
850.29,339.3473637332783
850.408,336.4854399789516
850.525,338.3646417657506
850.643,341.0144063231123
850.761,340.338629754933
850.879,344.67151119541165
850.997,343.2260376575354
851.115,345.10177624087146
851.233,356.41387846057114
851.35,358.881824836115
851.468,376.484836146724
851.586,402.8263755958609
851.704,432.3350146120974
851.822,472.66962765430776
851.94,521.4215567138341
852.057,575.0583342582088
852.175,632.610263317735
852.293,693.440980256049
852.411,757.566935289601
852.529,814.1110721413351
852.647,862.3443864822466
852.764,906.2616835071408
852.882,938.0906688437232
853.0,956.5499572106087
853.118,964.1053494735984
853.236,955.2364993123455
853.353,935.4213288047724
853.471,904.9057253967667
853.589,870.5702085688478
853.707,835.1039558101929
853.824,793.3329411467764
853.942,765.6597619811957
854.06,745.7000027290348
854.178,705.4242261608565
854.296,653.7268045710333
854.413,603.412066963894
854.531,558.0557709151964
854.649,501.2665744335981
854.767,442.4825727571947
854.884,393.83796502018515
855.002,346.92842221824037
855.12,294.6214768188931
855.238,240.17686908188358
855.355,202.02836524097808
855.473,173.3508570710684
855.591,139.90018872799854
855.708,110.49197007683597
855.826,80.53697311032033
855.944,46.82731099690746
856.062,28.43993215074657
856.179,10.623071525516917
856.297,4.393561347755988
856.415,1.2038876110759356
856.532,-2.287261285837535
856.65,-4.835038588316381
856.768,-13.086313056045825
856.886,-33.84941598973151
857.003,-34.99283305444402
857.121,-43.51724322861735
857.239,-40.795927845033525
857.356,-36.94573268490918
857.474,-36.601171677760426
857.592,-29.102322958548815
857.709,-22.502107921515595
857.827,-23.535566989496807
857.945,-12.441697774395124
858.062,-4.78654126924644
858.18,8.149946020663865
858.298,9.914367117150142
858.415,3.589801267478455
858.533,0.5087174581369636
858.651,-7.201168017160532
858.768,-10.343203671013402
858.886,-1.3463445287202616
859.003,7.201378432987498
859.121,10.323879020416802
859.239,2.9387930267132805
859.356,-4.323969551414059
859.474,-12.473128838205769
859.592,-24.975133917457867
859.709,-30.118564890530457
859.827,-21.264217451278455
859.944,-16.27447887880521
860.062,-18.17227555184258
860.18,-21.055525773307235
860.297,-14.306935206919002
860.415,-8.377373048258605
860.532,5.167904671629834
860.65,10.070393701011158
860.768,30.660231656730268
860.885,37.08062544046124
861.003,40.323678554759255
861.12,46.632582781120604
861.238,59.00403220297984
861.356,65.62144572043508
861.473,75.46823350298814
861.591,74.11554863248263
861.708,73.45204125115448
861.826,64.12619620748885
861.943,60.419398782871006
862.061,50.32544771748145
862.178,42.07026285993689
862.296,38.306990422452635
862.414,40.67877354361335
862.531,44.273297742918395
862.649,44.3517952497861
862.766,51.66765972216879
862.884,53.865580445686504
863.001,52.24604449812942
863.119,42.5726020954118
863.236,40.75501074938133
863.354,45.36962786645976
863.471,55.04815533638754
863.589,67.27244472702901
863.706,87.45761416748957
863.824,102.53126912733589
863.941,119.84865393174798
864.059,121.14849591736316
864.176,118.76089201553259
864.294,115.98281192322585
864.411,110.93287035905774
864.529,102.97556948753032
864.646,104.6208660186004
864.764,105.75360843711638
864.881,114.8214157906973
864.999,118.37493742999251
865.116,134.41850235933103
865.233,158.6395564661586
865.351,179.49697420934973
865.468,201.292054290203
865.586,219.84644173036372
865.703,227.4094871791824
865.821,226.4582469137154
865.938,215.4282187694606
866.056,213.38087460788984
866.173,216.28850880129755
866.29,219.13467113323347
866.408,229.28386376819984
866.525,232.34128151139123
866.643,228.09566895155217
866.76,218.73490487656142
866.878,212.17240919983902
866.995,208.73458884779203
867.112,207.69590269487946
867.23,209.0710693558197
867.347,219.19861696914083
867.465,224.30538536168268
867.582,232.35933990141058
867.699,236.51286154070556
867.817,243.02049573411318
867.934,246.43289183228285
868.051,250.74572083088535
868.169,260.45595242689046
868.286,275.9783052350167
868.404,288.9413506838356
868.521,319.06370349196175
868.638,351.19731171134333
868.756,379.06858226838733
868.873,408.28790477348355
868.99,443.87519264654486
869.108,482.8919177490436
869.225,524.8021493450486
869.342,561.0474458761187
869.46,603.5048636193096
869.577,646.0540562542756
869.694,665.4508679368605
869.812,684.362831134597
869.929,698.750119007658
870.046,707.6127315560436
870.164,704.5047813338665
870.281,690.7881731030312
870.398,675.6888808895121
870.516,660.3843938707979
870.633,633.3136730858503
870.75,609.5936016515517
870.867,587.7246124683355
870.985,571.2937185232145
871.102,549.1485388638077
871.219,518.9583375593791
871.337,491.0633743501885
871.454,467.53031590290254
871.571,441.4717163300753
871.688,409.9464500905815
871.806,383.72075095065463
871.923,363.85262756830355
872.04,339.66935267080083
872.157,302.47741976464005
872.275,272.599772572765
872.392,256.99485265361716
872.509,237.36569031022674
872.626,221.7555755858839
872.744,215.77056908664912
872.861,204.1855625874142
872.978,179.3416816293048
873.095,154.36360153699616
873.213,131.0954781546442
873.33,111.81350195843928
873.447,86.35836558907414
873.564,67.17768809416776
873.681,58.54159934385003
873.799,40.29274437983266
873.916,16.519745861561823
874.033,9.656473522857913
874.15,3.9727403061074815
874.267,-3.838483936870696
874.385,-1.2308953646983614
874.502,4.53039977290413
874.619,13.003331781478007
874.736,8.790555988256607
874.853,7.252602726571543
874.97,5.599911367133295
875.088,2.4043564400550625
875.205,0.12629976250360775
875.322,6.52985997713669
875.439,1.480652133396166
875.556,-2.810869097744656
875.673,-6.607711255482316
875.791,-9.75133653853347
875.908,-10.06118920263885
876.025,-6.963722854532375
876.142,-1.9795688505907307
876.259,2.784131105784608
876.376,0.530155387600519
876.493,-0.876893796566554
876.61,2.025282274796825
876.728,4.547028066337642
876.845,3.057815372548266
876.962,-1.439919279326681
877.079,-3.4503810162573223
877.196,-1.8320348306117618
877.313,-6.90108896100331
877.43,-11.404444329547973
877.547,-9.517917030462534
877.664,-3.5759998284083006
877.781,-8.426188866415716
877.898,-3.3682576726897637
878.016,3.286125127970438
878.133,6.489373039046319
878.25,5.878759188108523
878.367,3.2126328249872076
878.484,0.05054837286875702
878.601,-0.207098861379289
878.718,-5.750476498850532
878.835,-6.555835783648686
878.952,-8.757741790206246
879.069,-11.08047350826407
879.186,-18.326027184960942
879.303,-25.380787700639353
879.42,-30.790061469175576
879.537,-29.169418119902623
879.654,-30.333720170635736
879.771,-28.9022632407969
879.888,-27.63043643668911
880.005,-29.31933396265168
880.122,-32.79219145609147
880.239,-38.04900891700854
880.356,-45.08978634540288
