wavelength_nm,intensity
792.446,0.2963711132529645
792.565,0.25515078153430887
792.684,0.21966194207039563
792.803,0.18990459486122485
792.922,0.1658787399067962
793.041,0.14336248705476035
793.16,0.1278221259624699
793.279,0.12894245648734515
793.398,0.14596752344814207
793.518,0.16609060520840996
793.637,0.19794871641797773
793.756,0.2272611464937599
793.875,0.24579977257425564
793.994,0.24719956744639554
794.113,0.23531450109089438
794.232,0.22033883934337187
794.351,0.20645877676255953
794.47,0.19606995757604193
794.589,0.19258613358919674
794.708,0.19111873967140589
794.827,0.1927139122730494
794.946,0.19342452663099086
795.066,0.18584024346038602
795.185,0.18676519625575755
795.304,0.1797489099443425
795.423,0.1728686461028351
795.542,0.1654385217314588
795.661,0.15666630899032774
795.78,0.15101766678543818
795.899,0.14500547361552285
796.018,0.1360898189970347
796.137,0.13732556252668005
796.256,0.13167609594318497
796.375,0.1367072785725547
796.494,0.13779051206018242
796.613,0.1378844912212095
796.732,0.13308331022277445
796.851,0.12986411176829493
796.97,0.12645530623455026
797.089,0.12535888268923456
797.208,0.13264061891162066
797.327,0.1492642134915388
797.446,0.16020289320792522
797.565,0.16833456377258244
797.684,0.16985636667833642
797.803,0.17419919317211324
797.922,0.16700896297493759
798.041,0.15826395472778795
798.16,0.14907543079087904
798.279,0.14244248053102182
798.398,0.13238341278670443
798.517,0.12942224483574657
798.636,0.13711039971064448
798.755,0.14387525054738176
798.874,0.14630222116197528
798.993,0.1493837483893362
799.112,0.14598236226304112
799.231,0.14772097674204177
799.35,0.14391646947765685
799.469,0.1389578321655712
799.588,0.1438900893622808
799.707,0.138835824131957
799.826,0.13283022599088562
799.945,0.12135075390929084
800.064,0.12237215900150601
800.183,0.13370654044853275
800.302,0.1478405116398393
800.421,0.1537100873110031
800.54,0.16781273211530057
800.659,0.1703163699402057
800.778,0.1691234940980464
800.897,0.1641170428268417
801.016,0.17030070674670117
801.135,0.17260484494907508
801.254,0.18368284464979112
801.373,0.18710401586261824
801.492,0.1921013989691624
801.611,0.1983518375560674
801.729,0.1966412519496538
801.848,0.1987392955006526
801.967,0.19211706216266697
802.086,0.1794323485598304
802.205,0.1665687447996002
802.324,0.1503029305344693
802.443,0.12884396075045795
802.562,0.11179983429247181
802.681,0.09177336606098838
802.8,0.08252141447484249
802.919,0.07721442027815942
803.038,0.07345740088332937
803.157,0.06526970329530532
803.276,0.06102087717153373
803.394,0.05019703943678518
803.513,0.041414052421041736
803.632,0.03172446082162558
803.751,0.02823605556065052
803.87,0.027940764824875147
803.989,0.025525279642091024
804.108,0.027409220514903198
804.227,0.037011373094864186
804.346,0.04220017565174365
804.465,0.0491196318210114
804.583,0.05519916357211713
804.702,0.059708579937385396
804.821,0.06529177616031016
804.94,0.06449613427160857
805.059,0.07386366078968085
805.178,0.07978472352073972
805.297,0.07484750954920583
805.416,0.07354286357101436
805.535,0.08261874084396145
805.653,0.08323879356750992
805.772,0.09203578498315922
805.891,0.09671468079393869
806.01,0.11346579223541783
806.129,0.13012195292827752
806.248,0.1601515459579143
806.367,0.19431660122186467
806.485,0.22884741507112444
806.604,0.2530998625510002
806.723,0.2699081712232062
806.842,0.2658374429539003
806.961,0.2586101690041329
807.08,0.2458175150886316
807.198,0.24416056737623132
807.317,0.23513449930926184
807.436,0.22528405263679194
807.555,0.23167386449268246
807.674,0.22992788389088825
807.793,0.23234748838268798
807.912,0.2436085534184808
808.03,0.26217855917064103
808.149,0.28616720549675617
808.268,0.3156503352285322
808.387,0.34285405811609937
808.506,0.3593861999554623
808.624,0.3508135401215177
808.743,0.33044484682146613
808.862,0.3080399383658282
808.981,0.2886951232938084
809.1,0.2692967236124312
809.219,0.26771726748894764
809.337,0.26382213186261316
809.456,0.24783501085079712
809.575,0.2365245896679855
809.694,0.23126098555652014
809.812,0.23371356519253966
809.931,0.2432145819055887
810.05,0.2594070797594853
810.169,0.28225973236722046
810.288,0.29382416872983674
810.406,0.2985602771030922
810.525,0.3039880391263625
810.644,0.30648101331405103
810.763,0.3066006014965034
810.882,0.3158394658130027
811.0,0.32235128570250626
811.119,0.33007246900627907
811.238,0.33746802276087917
811.357,0.348511451844819
811.475,0.35978405818108805
811.594,0.36273786000925123
811.713,0.3735331511329353
811.832,0.38164261675989863
811.95,0.37607234380718624
812.069,0.3678772493745601
812.188,0.3671848246305942
812.307,0.3733677174565029
812.425,0.3737065903480184
812.544,0.37451700780188024
812.663,0.379074226017742
812.782,0.38207089553339124
812.9,0.3794271666302058
813.019,0.3903337488656326
813.138,0.39939784491776553
813.257,0.41331505782048006
813.375,0.42405841309201764
813.494,0.43250834708305264
813.613,0.43455285930934856
813.731,0.4399014809864906
813.85,0.44018429613283216
813.969,0.4468032852410506
814.088,0.4440029244028203
814.206,0.4503572879786733
814.325,0.4578163188858973
814.444,0.45860282936020014
814.562,0.4573127301272472
814.681,0.45759719403080024
814.8,0.4556080217403828
814.918,0.44690428570816354
815.037,0.43375467585648
815.156,0.42370060766845075
815.274,0.4160693882019873
815.393,0.40547535202735485
815.512,0.40867729181577356
815.631,0.4107465354002342
815.749,0.4275268151998518
815.868,0.4379503115724549
815.987,0.4428512956668099
816.105,0.4475758627395878
816.224,0.4339275038315755
816.343,0.4095210041217813
816.461,0.38524805374607796
816.58,0.35694636512529365
816.698,0.3485443516626864
816.817,0.34202027266340934
816.936,0.336495340533999
817.055,0.3328458697321024
817.173,0.32676283328676836
817.292,0.31890161218936963
817.41,0.31292079869111755
817.529,0.30960602560305406
817.648,0.31709555851868043
817.766,0.32539215808909183
817.885,0.33006478930972294
818.004,0.33139291652783853
818.122,0.3376763835436178
818.241,0.3374851809917958
818.359,0.34268714548675716
818.478,0.34223116630453554
818.597,0.3282447394916212
818.715,0.34146880332614526
818.834,0.35358882106020917
818.953,0.45286232064406406
819.071,0.57707834836121
819.19,0.7078171092577268
819.308,0.8070943551958463
819.427,0.8355899525147628
819.546,0.7778230055380607
819.664,0.6822951743274319
819.783,0.5456328394382062
819.901,0.4732595456478559
820.02,0.4011645490190533
820.138,0.355712570103658
820.257,0.3266933221277021
820.376,0.2930397676000073
820.494,0.26984345568308654
820.613,0.25878776748937193
820.731,0.25808792333795494
820.85,0.26765736347525776
820.969,0.2780825086050701
821.087,0.30348413986101047
821.206,0.3358880429920721
821.324,0.34891657575805474
821.443,0.3539148365278567
821.561,0.34882847381657067
821.68,0.3343821164184316
821.798,0.30569296985306005
821.917,0.27888340650822985
822.035,0.26464067062564955
822.154,0.2572773742059711
822.273,0.2507994604086002
822.391,0.2509734575790129
822.51,0.2498573022318172
822.628,0.24205873390843435
822.747,0.24172573823646415
822.865,0.253030495338345
822.984,0.26176648870548613
823.102,0.26605660825316296
823.221,0.2767241206929917
823.339,0.2809111929149807
823.458,0.2772650196275037
823.576,0.26936093084261664
823.695,0.2703197364454657
823.813,0.2717418428246062
823.932,0.26446840367292707
824.05,0.2592888861792193
824.169,0.2610448658935873
824.287,0.256594099087142
824.406,0.25347387934997456
824.524,0.2549141220584364
824.643,0.2528087123846406
824.761,0.2540758355859477
824.88,0.24811398279562077
824.998,0.25517813635080777
825.117,0.25853423493845346
825.235,0.2573537780600298
825.354,0.25103167181909936
825.472,0.24708789785503804
825.591,0.23979467361682802
825.709,0.24257370718062324
825.828,0.23662999071961738
825.946,0.23079838974895941
826.064,0.22141619012441066
826.183,0.2221021264088399
826.301,0.2227287074336731
826.42,0.22650853662454595
826.538,0.22926613634459814
826.657,0.23616623855729038
826.775,0.23739296720692793
826.894,0.22775273707885718
827.012,0.21599550269186107
827.13,0.2062637665385797
827.249,0.20075202446685553
827.367,0.1973325552958917
827.486,0.19359734911902116
827.604,0.1960021147959186
827.723,0.20885175740450768
827.841,0.21726376997968727
827.959,0.22414573586305783
828.078,0.23301610294289565
828.196,0.2549314370761739
828.315,0.26862936526982273
828.433,0.2829191973022211
828.552,0.28679795192575347
828.67,0.2727984077317961
828.788,0.23870098480995297
828.907,0.20249436659222547
829.025,0.16356455635720518
829.143,0.13124136005601666
829.262,0.10367651907049011
829.38,0.09265768621958836
829.499,0.09106124004243973
829.617,0.08474698800087888
829.735,0.08309526084829798
829.854,0.08696749420088015
829.972,0.08828261658387097
830.091,0.09729450706468601
830.209,0.11546437938403865
830.327,0.1364235630951052
830.446,0.16197965045394874
830.564,0.17625843566010801
830.682,0.19368937068887715
830.801,0.19866383849629843
830.919,0.18915974485531395
831.037,0.1828080750017635
831.156,0.17517696955247636
831.274,0.16099040543224916
831.392,0.1458747666236231
831.511,0.1439087909513359
831.629,0.15248909077921707
831.747,0.1607965212886775
831.866,0.16226655564411652
831.984,0.17194822528894602
832.102,0.16759912705604152
832.221,0.15371653584433717
832.339,0.13978666536033296
832.457,0.1462597642507626
832.576,0.13997232779336724
832.694,0.1409899187982403
832.812,0.13830323582964724
832.93,0.13829829038551406
833.049,0.13003796469790813
833.167,0.11774705406472877
833.285,0.11829132328371296
833.404,0.12461995823316716
833.522,0.12519616960361463
833.64,0.13510917179877463
833.759,0.14398658901156206
833.877,0.15865287234019104
833.995,0.17720598803075346
834.113,0.1952874188602495
834.232,0.2265613805135705
834.35,0.24400721543822576
834.468,0.25313424585477495
834.586,0.2596199672193004
834.705,0.2527235506807357
834.823,0.23646961259113453
834.941,0.22266572771708093
835.059,0.20760961174127204
835.178,0.20100337647184358
835.296,0.1927821835142396
835.414,0.1886540303329455
835.532,0.20219973007497705
835.651,0.2140620487045764
835.769,0.22551382678863638
835.887,0.2379573323351134
836.005,0.25474036686094503
836.124,0.2721779579995442
836.242,0.2850006777045514
836.36,0.2933354802812137
836.478,0.3129584991029949
836.596,0.3327785444114908
836.715,0.34891279297479394
836.833,0.35566478862889545
836.951,0.36902582756329483
837.069,0.3777497368417535
837.188,0.38087776414607455
837.306,0.38288463654691485
837.424,0.39316827014698047
837.542,0.4020900302907592
837.66,0.4064257722521386
837.779,0.40726367579037925
837.897,0.4028948040562789
838.015,0.40128018124315573
838.133,0.3986359095517624
838.251,0.4026509682356022
838.369,0.4031632422246703
838.487,0.40619976350378095
838.606,0.4107622095816731
838.724,0.4150344743904291
838.842,0.41314780663749084
838.96,0.40489034102124444
839.078,0.39712915132550924
839.196,0.40103786516923956
839.315,0.40687892246426316
839.433,0.4104529385941602
839.551,0.41196518383170055
839.669,0.4100175120619551
839.787,0.40922891661154326
839.905,0.39852716842998775
840.023,0.386629246891851
840.142,0.39294184874922106
840.26,0.3892028022697233
840.378,0.3825446311481483
840.496,0.379930861465159
840.614,0.3773377012473073
840.732,0.37950697623343227
840.85,0.37808690677120793
840.968,0.374053557129547
841.087,0.3810380275504006
841.205,0.3791818618058663
841.323,0.38881835820061483
841.441,0.40398066438803315
841.559,0.41262790645618097
841.677,0.42354218968945523
841.795,0.4316807901580093
841.913,0.4438942940735526
842.031,0.4636566328796642
842.149,0.47778269515996863
842.267,0.4895361958136424
842.385,0.49768468882546246
842.504,0.4994376526158093
842.622,0.5001873476432621
842.74,0.5033335112769048
842.858,0.5127160990611591
842.976,0.5262073898152281
843.094,0.5212020977976815
843.212,0.5153633590099739
843.33,0.5081569761157408
843.448,0.5035688196725773
843.566,0.49662458917489316
843.684,0.5075232092146627
843.802,0.5199106570159661
843.92,0.5318479940986662
844.038,0.5435083399699181
844.156,0.5590589284805269
844.274,0.569476111414684
844.392,0.576105274656566
844.51,0.5711082264250744
844.628,0.5694194095374566
844.746,0.5521630270635669
844.864,0.5224758395973348
844.982,0.4935495535839797
845.1,0.46661496628151367
845.218,0.43879664511395117
845.336,0.4141966980222626
845.454,0.3881557371281592
845.572,0.3674551008404882
845.69,0.34539094233931933
845.808,0.3262302452867233
845.926,0.31398938224869843
846.044,0.30749361371240674
846.162,0.2974686803659675
846.28,0.2833589510292733
846.398,0.2632131215431044
846.516,0.24729965181757518
846.634,0.2305832373302886
846.752,0.21354613956546253
846.87,0.19467232626758119
846.988,0.18749644538175236
847.106,0.16814354737451845
847.224,0.15516235210223592
847.342,0.14746246817576758
847.46,0.15162852929653117
847.578,0.1458422005684822
847.696,0.13965746197156215
847.814,0.14002266389977952
847.932,0.15032507235743497
848.05,0.14691998568191583
848.168,0.163046143253612
848.285,0.1807583157677491
848.403,0.1989172270839959
848.521,0.2040147953778
848.639,0.2123340352619002
848.757,0.2202270714069567
848.875,0.22574589716817156
848.993,0.2255278722137083
849.111,0.2429515494169563
849.229,0.25804718143827077
849.347,0.27130609792653004
849.465,0.2811512626094115
849.582,0.2814113772461381
849.7,0.28095345811747374
849.818,0.2814089504837038
849.936,0.2794712717581659
850.054,0.2915529755977698
850.172,0.3041383747653347
850.29,0.31375683533170323
850.408,0.3226020287661123
850.525,0.32262389798584934
850.643,0.32519886774682166
850.761,0.32668483336992776
850.879,0.3271155943779933
850.997,0.3323846334217413
851.115,0.3386676581502549
851.233,0.34155918929573936
851.35,0.35328476157776745
851.468,0.3578802833008216
851.586,0.3731836587307222
851.704,0.3961578770848053
851.822,0.42532977379504155
851.94,0.4669827625925559
852.057,0.5172612247394222
852.175,0.5644119944570197
852.293,0.6149946523093159
852.411,0.6576929531786049
852.529,0.7047414999491202
852.647,0.7359850600949793
852.764,0.7599312208249476
852.882,0.7896084616203555
853.0,0.8064608444499918
853.118,0.8091347396436245
853.236,0.8028352737163842
853.353,0.7974467461482218
853.471,0.7805935853133634
853.589,0.743274401218349
853.707,0.7049717334469723
853.824,0.6781518352716125
853.942,0.6520483221044324
854.06,0.633861316685874
854.178,0.6077363696749511
854.296,0.5865857231696184
854.413,0.5550322430414747
854.531,0.5123867487763212
854.649,0.4657166381591145
854.767,0.41871409686924
854.884,0.3787838996359545
855.002,0.3248380295412519
855.12,0.2761298489165969
855.238,0.24096332345519622
855.355,0.20855393223989202
855.473,0.18476795342742602
855.591,0.16665081409568427
855.708,0.1507277584224822
855.826,0.13963135738322224
855.944,0.11246253084975935
856.062,0.0985600908077019
856.179,0.08147890896781843
856.297,0.0645746582493805
856.415,0.0552653396228506
856.532,0.04481773610407616
856.65,0.03435614914221806
856.768,0.0350492559125927
856.886,0.031164580396910085
857.003,0.03194975333839707
857.121,0.026798218955177484
857.239,0.024995953673409115
857.356,0.02444903059375847
857.474,0.021682149255521508
857.592,0.015751240988311495
857.709,0.02824098039413845
857.827,0.035209291888658005
857.945,0.04810273306172974
858.062,0.04924229744888134
858.18,0.05698381465950693
858.298,0.05491069513174712
858.415,0.056694918388924515
858.533,0.0521868549912595
858.651,0.056466604554070224
858.768,0.05631864968767765
858.886,0.058103707595802565
859.003,0.04811968186628572
859.121,0.04517170918904585
859.239,0.0441021726548913
859.356,0.036519333216926506
859.474,0.034610388790481145
859.592,0.039630151484503676
859.709,0.04601166627601598
859.827,0.051081040419016
859.944,0.04934688830768873
860.062,0.048555793886845985
860.18,0.05100177641196675
860.297,0.044417512932488856
860.415,0.0513172411345717
860.532,0.06291023233466833
860.65,0.07534021324523124
860.768,0.09161686094209406
860.885,0.10150266344617756
861.003,0.10407328381269271
861.12,0.10625378631187758
861.238,0.10157710757050883
861.356,0.0989720922647627
861.473,0.10333142741828483
861.591,0.10939805066379858
861.708,0.12105396085460589
861.826,0.12613545166654652
861.943,0.11790540453591769
862.061,0.11685396924215397
862.178,0.10464582696091435
862.296,0.09551302625763858
862.414,0.09297922819179738
862.531,0.09747201836008423
862.649,0.1039998079861145
862.766,0.11574748588234043
862.884,0.11475409583100318
863.001,0.12146122633364621
863.119,0.11830549120008085
863.236,0.11664188134247125
863.354,0.11725025892162111
863.471,0.12006961992072351
863.589,0.12092778421734002
863.706,0.1293512709766348
863.824,0.13649022556239784
863.941,0.14483327354851716
864.059,0.15040247318136857
864.176,0.16080978286970105
864.294,0.16441662546105815
864.411,0.16126916615734788
864.529,0.15039381382547395
864.646,0.1469533641564078
864.764,0.15013250670930917
864.881,0.14857189445954766
864.999,0.14872813795012146
865.116,0.15934529617865384
865.233,0.18006851173201713
865.351,0.20254023430764695
865.468,0.21556705120005726
865.586,0.24269898603258167
865.703,0.2547151147546485
865.821,0.2530745874979935
865.938,0.24226944328398925
866.056,0.2386067153080416
866.173,0.22942312381105662
866.29,0.22952698168364039
866.408,0.22727476550170336
866.525,0.23527039976474348
866.643,0.2353355118428684
866.76,0.2357270778487717
866.878,0.23239410131502375
866.995,0.23956041070093065
867.112,0.23871458441997795
867.23,0.24345309881268573
867.347,0.24345720687400382
867.465,0.24013164974770537
867.582,0.24457668535685478
867.699,0.24849906493011703
867.817,0.25028547953652736
867.934,0.257394082420049
868.051,0.27229883377578934
868.169,0.27772570430408994
868.286,0.2863849633445582
868.404,0.29168240643179544
868.521,0.30556245518089875
868.638,0.3295469124976219
868.756,0.35340936178073085
868.873,0.37067018719099143
868.99,0.40558343168083477
869.108,0.43499559773617297
869.225,0.4642008447615307
869.342,0.484304127603557
869.46,0.5117526238205932
869.577,0.5430344805532068
869.694,0.565118745184251
869.812,0.568500332392305
869.929,0.5784629340080699
870.046,0.5867050574741551
870.164,0.5833547689896922
870.281,0.5756962779128834
870.398,0.5790819870139651
870.516,0.570364169429088
870.633,0.5589316730962977
870.75,0.5369834032717425
870.867,0.5169930326352513
870.985,0.5051920390658026
871.102,0.485225575408871
871.219,0.46287253568901565
871.337,0.4487550382381105
871.454,0.4371741537563307
871.571,0.4271661836538458
871.688,0.4057199604000411
871.806,0.3817651530496984
871.923,0.3587418935235712
872.04,0.3356518593303984
872.157,0.3085743058224193
872.275,0.2957486096463333
872.392,0.28915274259201473
872.509,0.27517291636822794
872.626,0.24982903106761645
872.744,0.23210322846043538
872.861,0.2157096216797434
872.978,0.20242144910597198
873.095,0.18505672432800063
873.213,0.17651449938609604
873.33,0.15894532871396072
873.447,0.13990299347379587
873.564,0.11820121285228607
873.681,0.10844220508866237
873.799,0.1023442627120664
873.916,0.09286979803720433
874.033,0.08101295841408215
874.15,0.07993506093823526
874.267,0.06743176619515366
874.385,0.06405591880501008
874.502,0.06146834841252293
874.619,0.06005126305167772
874.736,0.05818191320392379
874.853,0.059738139172730395
874.97,0.051364282279892925
875.088,0.05445902567898962
875.205,0.05054878362863586
875.322,0.05459733798635867
875.439,0.05909615762122457
875.556,0.05497271088067055
875.673,0.05705678009097037
875.791,0.06623198900583079
875.908,0.05739058978729618
876.025,0.0562020776863804
876.142,0.05519738648485255
876.259,0.056651416347693384
876.376,0.0546870933458884
876.493,0.05155620941966299
876.61,0.05914362098469283
876.728,0.06448117166291223
876.845,0.06846847392325783
876.962,0.07199366614371291
877.079,0.07035849069990754
877.196,0.06806142701112666
877.313,0.06307792584770112
877.43,0.05723316969938212
877.547,0.052180851304962916
877.664,0.045131553597871736
877.781,0.04840150938847662
877.898,0.051771505515594944
878.016,0.05525209451990391
878.133,0.058603847768089884
878.25,0.06967086403902431
