wavelength_nm,intensity
792.446,229.6889622685451
792.565,195.78229560187845
792.684,165.44705750664036
792.803,138.68324798283084
792.922,115.49086703044972
793.041,82.14627828586104
793.16,59.85363759322037
793.279,63.52290166248437
793.398,86.1713865109692
793.518,105.6791065686892
793.637,128.00702864661127
793.756,157.40147309105566
793.875,173.01135765094028
793.994,178.35096804055064
794.113,165.65493629451896
794.232,147.65832734791002
794.351,136.3966390362217
794.47,116.39281508239772
794.589,109.8969276365103
794.708,115.97138651096915
794.827,121.57484971443235
794.946,129.4562349958176
795.066,131.72463326421587
795.185,134.058832398415
795.304,132.37225231183496
795.423,124.38783672741936
795.542,118.10645144603411
795.661,107.38091032049306
795.78,97.18523932482204
795.899,90.44065058023328
796.018,86.00255534213804
796.137,88.15839949798219
796.256,84.58783672741941
796.375,91.08653802612072
796.494,84.19534459315706
796.613,75.0474304253076
796.732,60.88078748628773
796.851,54.172470264839305
796.97,50.20096440658679
797.089,55.10332957118077
797.208,64.4899180470164
797.327,90.91450462136291
797.446,113.55740346348097
797.565,128.0588911464662
797.684,132.86202189865892
797.803,131.37510936080838
797.922,118.32802366278452
798.041,100.74760463142732
798.16,87.63385226673674
798.279,76.05603063797669
798.398,70.67128260229032
798.517,64.515971796041
798.636,72.96931899844964
798.755,78.16206014025228
798.874,86.35393548118915
798.993,95.64537792169325
799.112,100.85716668254388
799.231,98.20748358192256
799.35,85.03745416095519
799.469,76.63365850622138
799.588,77.03852086014537
799.707,72.8927338634199
799.826,84.22053994028747
799.945,87.16393043273933
800.064,94.44498326285353
800.183,106.45677202370344
800.302,102.63392874992138
800.421,103.41541448046812
800.54,108.28261449672895
800.659,115.31951148268676
800.778,121.87155998379603
800.897,123.08161714291413
801.016,125.54362235398045
801.135,134.36580072522005
801.254,138.01135571983633
801.373,143.31491937246125
801.492,154.46263886924194
801.611,168.15667871234285
801.729,176.71651942124433
801.848,176.6737627275482
801.967,162.200703003549
802.086,143.51638786829432
802.205,117.48228918325603
802.324,93.06377491380229
802.443,67.27123467032266
802.562,58.00510135325005
802.681,53.24971284316826
802.8,40.133168551724786
802.919,30.329736563903786
803.038,18.110916345945427
803.157,2.3555706587266925
803.276,-2.629750436474652
803.394,-18.14542759158109
803.513,-19.957105464242776
803.632,-26.803227134106635
803.751,-36.42162394473806
803.87,-40.028190460929125
803.989,-37.07998894170797
804.108,-36.39596136190495
804.227,-18.208736130520386
804.346,-11.320203057928357
804.465,0.34395888432683197
804.583,6.565318632038096
804.702,7.62008255838551
804.821,3.32488714347137
804.94,6.866771759474785
805.059,-0.23910306017107352
805.178,4.7422890582993436
805.297,7.5613787049849
805.416,16.279013747079187
805.535,32.55699976705294
805.653,40.65073295527191
805.772,47.30682015625901
805.891,63.736008859369406
806.01,68.36903777405905
806.129,85.2735430449448
806.248,110.42189555529865
806.367,146.07847317387763
806.485,180.31773477514082
806.604,206.32496174436952
806.723,230.00924499065457
806.842,240.9203680637796
806.961,237.25140455681827
807.08,228.93309040050642
807.198,225.18620481562328
807.317,208.03931923074018
807.436,196.57122152464495
807.555,189.76286407828985
807.674,197.34151961894756
807.793,207.6794825189126
807.912,225.96636316779555
808.03,253.61514857858327
808.149,285.9522456776827
808.268,311.8607713482108
808.387,339.2151844646263
808.506,356.0189482303923
808.624,353.1707639442102
808.743,336.15115108659927
808.862,314.3800230774732
808.981,292.58811584756785
809.1,269.55291857437237
809.219,252.1116606951163
809.337,242.42711277257033
809.456,237.35814926560863
809.575,226.1307442002054
809.694,226.82195385341686
809.812,232.71229770576267
809.931,247.3030744585414
810.05,264.8583533758222
810.169,276.4041084835793
810.288,290.8329804744533
810.406,299.409904413379
810.525,292.0231919886685
810.644,284.9680812955597
810.763,285.0056112950916
810.882,288.2751759266581
811.0,299.4200652335494
811.119,308.1485043239904
811.238,327.87521181269983
811.357,351.25733055682065
811.475,356.95979562128775
811.594,371.88130830480236
811.713,386.3205699060659
811.832,389.1113466588446
811.95,391.29259960209936
812.069,385.2193070908086
812.188,393.11917475267796
812.307,400.66839306389807
812.425,402.25224340975
812.544,406.7079552274636
812.663,405.7324982140083
812.782,398.0072576507693
812.9,400.47595648146967
813.019,409.94552111303597
813.138,425.52071345023
813.257,451.62144691296544
813.375,471.20443145795207
813.494,480.4194506349734
813.613,480.54615812368297
813.731,472.7248136643408
813.85,469.19178089331047
813.969,466.151388814921
814.088,463.0088322343671
814.206,473.2385700261077
814.325,478.33497448451504
814.444,486.6997772113205
814.562,489.63947171301777
814.681,494.078733314282
814.8,496.95002954758087
814.918,490.2533604129143
815.037,481.7488990704553
815.156,469.0539615375201
815.274,456.8767729223336
815.393,449.1272899348528
815.512,448.2730450426102
815.631,459.32269625426375
815.749,463.1299232234933
815.868,465.7977562533289
815.987,475.17121698879225
816.105,473.22692880650675
816.224,463.1735497151303
816.343,445.7963610999443
816.461,425.8858391514252
816.58,406.59436482195383
816.698,377.2682584578505
816.817,357.5005936521886
816.936,341.26626217986006
817.055,317.51764499324577
817.173,301.7447853823887
817.292,295.13729373689966
817.41,292.8665986282071
817.529,297.1803191039303
817.648,297.849017934632
817.766,299.29260854022533
817.885,299.9916104012299
818.004,307.370265941888
818.122,311.8943760280006
818.241,321.9218232333293
818.359,328.6806311943416
818.478,344.3603939584898
818.597,335.18586947958073
818.715,356.5665962796845
818.834,380.50287917854774
818.953,501.69038940765887
819.071,618.653013944175
819.19,765.1049726097103
819.308,876.4144810270462
819.427,940.6712503467884
819.546,894.63655706453
819.664,788.615416829462
819.783,632.4335419361
819.901,528.9244903253355
820.02,411.6286108562592
820.138,343.38750432251777
820.257,296.63388062501855
820.376,272.1529005645859
820.494,243.92982450351377
820.613,218.58120731690065
820.731,223.50445160214912
820.85,237.75150541120715
820.969,257.95094017264626
821.087,281.45946584317636
821.206,318.45024259595755
821.324,341.9431838509031
821.443,348.65863592835933
821.561,337.9212741530016
821.68,318.92417211790337
821.798,287.78074973648467
821.917,247.92477324251183
822.035,221.629835709578
822.154,213.8890107307566
822.273,210.53519873894817
822.391,222.8220793878325
822.51,225.68471761247463
822.628,224.76726925703025
822.747,227.54159579336093
822.865,223.41029462406414
822.984,223.17509735087134
823.102,218.5295104672888
823.221,222.66401016379274
823.339,239.91192977371648
823.458,252.34513076892156
823.576,253.30993349572842
823.695,258.9864245342236
823.813,262.07070778051127
823.932,250.0181944900025
824.05,229.8791011129137
824.169,226.45948825530542
824.287,223.59831695613858
824.406,219.93108505091112
824.524,209.25259773442826
824.643,213.17411041794537
824.761,213.74757115341066
824.88,216.56605353389767
824.998,220.65726318711197
825.117,232.66535595720936
825.235,233.26911972297762
825.354,230.06076227662464
825.472,231.66452604239277
825.591,229.3730517129228
825.709,224.81750811938377
825.828,220.97798184186223
825.946,211.3471135729988
826.064,204.00195958984966
826.183,201.2117839616788
826.301,207.19217110407052
826.42,213.3483158222196
826.538,222.66030469621265
826.657,228.7298693277815
826.775,226.17432573424207
826.894,217.92094664286725
827.012,205.52817361209853
827.13,191.77869062461997
827.249,189.23267084060464
827.367,178.16284153277982
827.486,183.22980876175168
827.604,180.7686374625851
827.723,190.11179516774737
827.841,194.6038706218275
827.959,210.7452967252581
828.078,229.60447174643753
828.196,254.31992382389382
828.315,265.7583196242938
828.433,273.69455092252934
828.552,265.75718914717186
828.67,249.7150654670525
828.788,210.10497641896774
828.907,179.44344994925018
829.025,142.62982756617737
829.143,109.09380502392813
829.262,76.95710475350073
829.38,53.19181561926855
829.499,44.91413204308215
829.617,37.00495547447544
829.735,34.96827990714369
829.854,41.73029666133776
829.972,51.18887073603679
830.091,65.86900848351694
830.209,88.75948686214343
830.327,112.55003335729612
830.446,147.1287841153322
830.564,166.88065796044395
830.682,193.4714573128292
830.801,210.58902610371803
830.919,213.41741740542943
831.037,205.62156628289833
831.156,193.04995758460944
831.274,170.95973416770585
831.392,148.34656702785836
831.511,137.4468198014307
831.629,136.68906391699426
831.747,140.2360699373197
831.866,137.32333569790478
831.984,139.4608179087063
832.102,134.44591916712693
832.221,129.78166977619696
832.339,114.54599181383836
832.457,118.9267640679299
832.576,110.07924025403258
832.694,103.12868581108114
832.812,92.69271804856436
832.93,95.40020818618812
833.049,92.62264306730985
833.167,92.32213725209294
833.285,87.20931504517492
833.404,87.9265637777631
833.522,84.91125727352801
833.64,85.8919838124364
833.759,94.04828722419236
833.877,116.89745112226788
833.995,140.6305349924247
834.113,165.11411802222804
834.232,190.37641658614166
834.35,210.2586285699686
834.468,219.57200938496456
834.586,221.02478413935467
834.705,221.02214763833365
834.823,215.7563076741092
834.941,201.7779135973308
835.059,187.61683553786867
835.178,181.45835488100397
835.296,175.82628115054627
835.414,167.6920429179242
835.532,168.18810771560518
835.651,178.53265736177104
835.769,186.25296458369442
835.887,194.11266574501172
836.005,215.5671721011344
836.124,242.67102910660782
836.242,266.31081684801194
836.36,287.58263922145085
836.478,308.551455158648
836.596,323.4373791682476
836.715,354.51754850390967
836.833,385.82513032093385
836.951,413.78784899950233
837.069,425.08102921494003
837.188,421.82501728759314
837.306,414.7895101871587
837.424,407.473209212338
837.542,392.5712774484624
837.66,409.50862203190934
837.779,420.8609579191709
837.897,430.88949024932003
838.015,430.2236502850967
838.133,425.7205808836437
838.251,416.5655634302426
838.369,418.4339226002179
838.487,414.19578826369946
838.606,425.6771344466612
838.724,426.293545564688
838.842,427.7229436957016
838.96,417.5497444241179
839.078,412.8198351958242
839.196,411.9124367900414
839.315,421.5496271288473
839.433,429.4344365152721
839.551,447.01188659433757
839.669,447.58414186820823
839.787,446.1529339386155
839.905,430.7399078272049
840.023,420.9277475166599
840.142,420.36407205459966
840.26,407.00385979600264
840.378,394.5960284897865
840.496,391.46611926149234
840.614,387.4643485613368
840.732,389.2348722334758
840.85,389.18201928223846
840.968,396.8053568071915
841.087,415.13518783863805
841.205,418.8702136752793
841.323,425.41130011798094
841.441,431.680525088821
841.559,440.606892916804
841.677,451.0631308746572
841.795,457.5124424255839
841.913,475.185996400753
842.031,500.1114984278702
842.149,515.3521519701388
842.267,530.7105544301567
842.385,545.6152772364946
842.504,561.3650216878543
842.622,566.9312163556642
842.74,563.9649434910064
842.858,567.8636056912835
842.976,568.6367267660194
843.094,566.9397179706255
843.212,558.6981204306428
843.33,564.6296830638205
843.448,569.9525876883399
843.566,568.494539931907
843.684,579.396665335647
843.802,591.5533361939326
843.92,595.5316520738634
844.038,600.7930848369111
844.156,592.245859591301
844.274,603.2943053413617
844.392,605.8215389702104
844.51,606.4509371012234
844.628,607.8621534140545
844.746,595.3287809822971
844.864,573.1980059531368
844.982,543.739092395838
845.1,503.91394507230575
845.218,470.5684514284271
845.336,433.55109631268704
845.454,404.95105721426313
845.572,378.2627064275275
845.69,357.7977322641684
845.808,340.23059359864476
845.926,320.4435415132076
846.044,305.26947644075744
846.162,288.766407039303
846.28,262.24169261620347
846.398,242.54641542254143
846.516,224.34637632411756
846.634,202.19568787504448
846.752,177.3376401186121
846.87,158.41552309811047
846.988,148.16267014687287
847.106,132.783625659854
847.224,113.75970453435141
847.342,102.19846317505184
847.46,98.74279040312247
847.578,89.81852650382973
847.696,90.3452857373618
847.814,103.5122139145865
847.932,118.4940057130681
848.05,122.01454104070382
848.168,128.38875602201924
848.285,134.8677329080965
848.403,150.56402581148996
848.521,156.06637932094398
848.639,163.85964192130723
848.757,188.68061014937638
848.875,212.30590738177492
848.993,221.88445136742024
849.111,230.81451050458054
849.229,240.3731410703122
849.347,251.5101266143986
849.465,250.1345580459307
849.582,244.29838341685672
849.7,254.77129969687377
849.818,266.95677008944494
849.936,279.6660500058257
850.054,290.74156368844024
850.172,303.2421855961629
850.29,312.48306724414533
850.408,313.039966208145
850.525,307.99859677387644
850.643,312.79099357337407
850.761,320.8968102862918
850.879,327.9385577351402
850.997,328.54827055195403
851.115,332.97703098781534
851.233,324.7157481336334
851.35,319.7393137642997
851.468,326.806169438256
851.586,355.7812502204373
851.704,399.0446426909303
851.822,445.52361957700776
851.94,494.5471852076739
852.057,556.3906642582535
852.175,600.988255862946
852.293,650.8499167317076
852.411,697.121101409993
852.529,743.233844529837
852.647,794.2045963076896
852.764,832.5407160509102
852.882,858.1253206426154
853.0,891.9809209053162
853.118,902.0815428130389
853.236,904.002078140675
853.353,887.4464229921208
853.471,858.358300311099
853.589,824.5273204872202
853.707,782.3370333040339
853.824,748.2818110559124
853.942,726.1720433532455
854.06,693.8865180748212
854.178,665.1204733158775
854.296,626.8661168686223
854.413,586.1979076075143
854.531,537.8258022425102
854.649,480.17231159612106
854.767,427.1066997376105
854.884,375.41511385312583
855.002,316.976341821455
855.12,269.06224511445964
855.238,223.22347308278904
855.355,190.01413828055553
855.473,167.42731430083285
855.591,129.33019427062348
855.708,94.32828798304791
855.826,65.70057799530721
855.944,42.20767795552673
856.062,27.3048998834115
856.179,16.44779002606466
856.297,7.126107088269084
856.415,9.597764185660967
856.532,-4.885582789117906
856.65,-22.444509445625638
856.768,-29.017022458008366
856.886,-37.451828292973275
857.003,-35.03635002543645
857.121,-39.49385628476104
857.239,-37.32191206172656
857.356,-28.273395335532314
857.474,-31.47491941543118
857.592,-33.421297417890145
857.709,-26.42524809814669
857.827,-20.488108531864864
857.945,-7.520164148604508
858.062,-9.014815709414458
858.18,7.675354191618202
858.298,8.240370464786738
858.415,3.211579432964004
858.533,-1.73639799859426
858.651,-3.9354388011812844
858.768,-4.33594332807886
858.886,-9.372634002200261
859.003,-16.642751106157185
859.121,-19.193640900952417
859.239,-27.218395335472405
859.356,-31.8597313778557
859.474,-36.676964802841944
859.592,-27.751795598274164
859.709,-24.876486756733698
859.827,-14.292526828305029
859.944,-10.278018208549284
860.062,-5.410065868341032
860.18,0.6460039783517733
860.297,-4.349908902065763
860.415,-3.396361065731248
860.532,4.1451462474454654
860.65,6.350817578250133
860.768,18.323409008956702
860.885,19.333298580849892
861.003,30.077851371828785
861.12,36.98969552648013
861.238,37.9513003634343
861.356,44.443254954944436
861.473,56.487499241829305
861.591,60.726149804028836
861.708,58.557845362708505
861.826,54.2599092581219
861.943,48.906098043413564
862.061,42.53728522977187
862.178,34.09834634493726
862.296,30.17495546999919
862.414,34.21263285844391
862.531,31.140121559530453
862.649,27.378390425964177
862.766,40.76389683871089
862.884,47.40690191034339
863.001,49.985837717906946
863.119,54.329275689972725
863.236,56.50301669234153
863.354,57.66983128778399
863.471,54.6297194763
863.589,53.49350376871206
863.706,69.01183351566962
863.824,82.76739269985677
863.941,88.41818997928229
864.059,94.43955002927075
864.176,89.69640791475703
864.294,88.9974216443992
864.411,85.42917130477736
864.529,84.19771750195191
864.646,89.57838491124781
864.764,104.39714755863915
864.881,112.7994599895803
864.999,112.41129623004522
865.116,116.55386840124598
865.233,133.00899468500077
865.351,153.48922919386374
865.468,175.10452863779142
865.586,194.71982808171919
865.703,211.9446513351707
865.821,214.07769969684713
865.938,199.19343204120747
866.056,186.81219468859788
866.173,176.0517365567674
866.29,179.54582387948216
866.408,186.67108003336557
866.525,190.96776475867762
866.643,199.3034105229506
866.76,199.29360174176895
866.878,194.87080594760013
866.995,187.9025556079767
867.112,185.98192431597232
867.23,191.430124192799
867.347,200.00646259776414
867.465,200.89622091614916
867.582,211.10459395314885
867.699,215.5623176394992
867.817,221.70315820896639
867.934,230.9072022416372
868.051,242.88700385006564
868.169,258.95771454940314
868.286,280.0154382357534
868.404,288.7025991515408
868.521,307.30491158247963
868.638,321.5773538835483
868.756,340.088757223578
868.873,364.90145926490663
868.99,394.60247299454704
869.108,439.2108460315467
869.225,485.4625091118361
869.342,520.9817046596579
869.46,564.1441902507695
869.577,593.8599225951275
869.694,619.5219752858059
869.812,628.8697422621985
869.929,632.2573360784182
870.046,638.935838985547
870.164,636.1909652692991
870.281,627.751719258679
870.398,621.0986204342059
870.516,608.8420584062699
870.633,595.1629855558227
870.75,569.9531767746397
870.867,541.8031082531968
870.985,524.365593844308
871.102,504.7081660155058
871.219,487.9858031217685
871.337,455.9716653362565
871.454,438.7670513602681
871.571,424.24209106393346
871.688,397.45219570266363
871.806,362.8337289128225
871.923,343.94166904938817
872.04,319.85740139374604
872.157,296.7445623095325
872.275,268.649039242635
872.392,255.5128235350448
872.509,244.21989787074457
872.626,219.3001323796047
872.744,197.03577814387614
872.861,182.4779174146411
872.978,159.5598835252331
873.095,142.75613535011084
873.213,123.707365529967
873.33,102.80145285268027
873.447,76.5960955003566
873.564,52.087337628360515
873.681,40.62151875397471
873.799,27.535435914959045
873.916,20.584262796681102
874.033,20.65766412382483
874.15,20.361167652408664
874.267,16.15669498973647
874.385,6.262744347030131
874.502,7.2605840435020585
874.619,1.1192437789304108
874.736,-3.055125032122339
874.853,-3.223874913790614
874.97,-6.800950945849122
875.088,-3.7962648060963033
875.205,-5.1858222770897635
875.322,-1.816450684179403
875.439,4.191122256609775
875.556,-2.7381726570451033
875.673,3.475164345203794
875.791,2.5765191093625663
875.908,-0.6957328789612802
876.025,-4.6334154700071934
876.142,-5.785007688045971
876.259,-2.5511220544172435
876.376,-11.364389364058624
876.493,-17.812742583361093
876.61,-13.661204168009862
876.728,-10.668796959730976
876.845,-7.436547866121034
876.962,-8.159776066342385
877.079,2.0132033938770713
877.196,4.175642044846027
877.313,-2.2305358884789657
877.43,1.5825454339852687
877.547,-5.308791558245711
877.664,-2.6516972481557315
877.781,-6.254329582830398
877.898,-7.2392549967361255
878.016,-8.302296394053005
878.133,-14.041855249401483
878.25,-12.938248011554112
878.367,-3.7482104596259913
878.484,-9.945493975662757
878.601,-1.3222806418415174
878.718,-2.824031810597253
878.835,-6.467120472161975
878.952,-12.549239775820848
879.069,-13.839278965824331
879.186,-18.5859345330425
879.303,-19.74541112152926
879.42,-27.058297493235237
879.537,-21.529122865629763
879.654,-22.043398575683042
879.771,-23.931488072445905
879.888,-20.279225489355362
880.005,-23.036236830143217
880.122,-27.923653513163103
880.239,-34.94147553841505
880.356,-44.089702905899046
