wavelength_nm,intensity
792.446,0.3762555631906182
792.565,0.32948012392661474
792.684,0.28898749283199754
792.803,0.2547776699067666
792.922,0.2268506551509215
793.041,0.19421002344613128
793.16,0.17822282539931533
793.279,0.16966051861785733
793.398,0.17069180810740112
793.518,0.1840140637095835
793.637,0.20935607446764984
793.756,0.2304260213326319
793.875,0.2545402129223466
793.994,0.274352369842959
794.113,0.27722956434070495
794.232,0.2614718146938971
794.351,0.23546405964886946
794.47,0.20928139318970293
794.589,0.1896696965414746
794.708,0.1812425039141969
794.827,0.17468332588398727
794.946,0.16351257894055304
795.066,0.17057094235493453
795.185,0.17697191399370388
795.304,0.1835330573207017
795.423,0.18293069385515587
795.542,0.18412166370873104
795.661,0.1814154500315478
795.78,0.1726256601468698
795.899,0.1621398191340807
796.018,0.16449620998298597
796.137,0.15557376256511274
796.256,0.15107716351399078
796.375,0.1452824859343434
796.494,0.14000468140996047
796.613,0.13473253798072787
796.732,0.12434183646840916
796.851,0.11569017606308965
796.97,0.11273234717304678
797.089,0.10544981461750857
797.208,0.11068860223451543
797.327,0.12029609329194163
797.446,0.13521008592509864
797.565,0.15016583618030746
797.684,0.15269688101260842
797.803,0.16024631119326604
797.922,0.16795591306215188
798.041,0.1652415807670729
798.16,0.1712148429236917
798.279,0.16054287129638298
798.398,0.1510354397742122
798.517,0.1437280203405452
798.636,0.13865623774255403
798.755,0.14348155709409097
798.874,0.14786381375915336
798.993,0.15185975193960868
799.112,0.1676701735197954
799.231,0.16709183254689852
799.35,0.16801006507812272
799.469,0.16170386661637304
799.588,0.15936658501814643
799.707,0.15703716460707223
799.826,0.15841527658670673
799.945,0.1575765337893894
800.064,0.16490556444332355
800.183,0.17053559602396434
800.302,0.17390651894670972
800.421,0.16768286295005935
800.54,0.16720966535532455
800.659,0.1651720915172798
800.778,0.17251291395194246
800.897,0.17436466245750387
801.016,0.1794945260055792
801.135,0.18428341056092318
801.254,0.19001760287133257
801.373,0.19162172398159646
801.492,0.20242048611488236
801.611,0.20440587480203323
801.729,0.20834083790295732
801.848,0.21447889870331666
801.967,0.21544429835745527
802.086,0.20976109897752668
802.205,0.19928650602826437
802.324,0.18200510765349442
802.443,0.16295358556111025
802.562,0.13595982409733268
802.681,0.11291497968137773
802.8,0.09498958375514921
802.919,0.09013840506005763
803.038,0.08084540233722687
803.157,0.07603529283150394
803.276,0.07129515081679456
803.394,0.06769097279409717
803.513,0.057078554827533004
803.632,0.04829278526111233
803.751,0.04199092877986328
803.87,0.05626202179030439
803.989,0.057116434055473515
804.108,0.062318454411239566
804.227,0.06388119956829817
804.346,0.06574346868737618
804.465,0.0654659016892217
804.583,0.06839305328911274
804.702,0.0711379886217659
804.821,0.08357280203998922
804.94,0.0820525427794008
805.059,0.07663383204025673
805.178,0.07376235691866057
805.297,0.07722774006550806
805.416,0.08988785573405486
805.535,0.10238072415414404
805.653,0.10087080643682109
805.772,0.10530652830885473
805.891,0.09615281204924292
806.01,0.09940867356915117
806.129,0.11132927199312612
806.248,0.1378339775302312
806.367,0.16388086541959207
806.485,0.19427217314125608
806.604,0.21607996718513423
806.723,0.24026085710061612
806.842,0.2545101196975469
806.961,0.27306436490876185
807.08,0.2741294340028725
807.198,0.27482306200403656
807.317,0.2605096837314386
807.436,0.25263363508818937
807.555,0.24502388415972462
807.674,0.23831129121501732
807.793,0.2327837722335208
807.912,0.23599985866218212
808.03,0.24263359620531075
808.149,0.2609451272631976
808.268,0.29537700522529253
808.387,0.3299975516790431
808.506,0.3605469858362905
808.624,0.3797792584393919
808.743,0.37746598235479645
808.862,0.37612061493832916
808.981,0.35636827780472513
809.1,0.3314639151411751
809.219,0.3096509643252715
809.337,0.28114912589114527
809.456,0.2614223376157865
809.575,0.24671393468878478
809.694,0.22990168155014595
809.812,0.2382245916826283
809.931,0.2387118635210446
810.05,0.2519214841170827
810.169,0.2639686316629728
810.288,0.2807943983490741
810.406,0.29614127920214683
810.525,0.30214317382790984
810.644,0.2950846886485018
810.763,0.3070099877935313
810.882,0.30848580391635105
811.0,0.3068731561367066
811.119,0.3074341266046762
811.238,0.3127727335644629
811.357,0.31976218982623483
811.475,0.312207467207837
811.594,0.30785126511203564
811.713,0.32095869027509366
811.832,0.33426755835892974
811.95,0.345958987186178
812.069,0.3470201256867137
812.188,0.3559001974586171
812.307,0.35766294691249684
812.425,0.3501023284037354
812.544,0.33890099759505976
812.663,0.34167390959801125
812.782,0.3529997932226774
812.9,0.3589948093096825
813.019,0.36024363365348
813.138,0.37325475927392304
813.257,0.3802353717001494
813.375,0.3918796334044841
813.494,0.3919817070724378
813.613,0.4044150354371855
813.731,0.4175391656229425
813.85,0.42565473694428324
813.969,0.42524878139251865
814.088,0.42608784135600125
814.206,0.42815029857006237
814.325,0.43006535852501765
814.444,0.4304808970306698
814.562,0.43078048302582544
814.681,0.43863368722595847
814.8,0.44747150511691863
814.918,0.4433776701423269
815.037,0.4471125949230432
815.156,0.44894314711611183
815.274,0.44883788197292396
815.393,0.4501721967270029
815.512,0.4395840385162079
815.631,0.43710862544659823
815.749,0.44347016938458045
815.868,0.446759954442797
815.987,0.44515713314709404
816.105,0.4459490259876637
816.224,0.4498126777079988
816.343,0.45047977420252505
816.461,0.4434635429040609
816.58,0.4266375326879062
816.698,0.41086885214373736
816.817,0.3963068638274484
816.936,0.3755286417704695
817.055,0.3658376415434317
817.173,0.34814493544373504
817.292,0.3368266694761688
817.41,0.3311890938745413
817.529,0.31850101604568437
817.648,0.3095823774563607
817.766,0.31221673603575273
817.885,0.3105244937361916
818.004,0.3135922002573549
818.122,0.3070545187267879
818.241,0.3104121065241926
818.359,0.31563672627027095
818.478,0.3247585295471072
818.597,0.3201144114718524
818.715,0.333802877892318
818.834,0.32259837936991326
818.953,0.34069985410004605
819.071,0.35950845244009144
819.19,0.46586543866755104
819.308,0.5947761176609253
819.427,0.7248227112716835
819.546,0.8094316374261694
819.664,0.8279094049047205
819.783,0.7520803077333872
819.901,0.6460514295819841
820.02,0.4988991919021336
820.138,0.42106992116324493
820.257,0.355361756828666
820.376,0.31642375516034593
820.494,0.2854220269766561
820.613,0.2640876259286491
820.731,0.2606963845557923
820.85,0.25831530573200756
820.969,0.2604288606625568
821.087,0.27825987665575835
821.206,0.3020260889489549
821.324,0.31763140632965825
821.443,0.3325419912957761
821.561,0.356476236464353
821.68,0.35830580600902473
821.798,0.3416429154262784
821.917,0.31859281028227915
822.035,0.295119183680449
822.154,0.2699170785535042
822.273,0.25666496054646637
822.391,0.25399498309483326
822.51,0.259836706032365
822.628,0.25335405281186074
822.747,0.263401510875879
822.865,0.2673260867966407
822.984,0.2732690225187583
823.102,0.27523419754180634
823.221,0.2872567788778424
823.339,0.2860253986750817
823.458,0.2890567472056619
823.576,0.2797234309940506
823.695,0.2803178115074145
823.813,0.27820401304680736
823.932,0.2850342802687423
824.05,0.2826797329515956
824.169,0.2838371709947441
824.287,0.2726427187248238
824.406,0.2627905641611607
824.524,0.261966000393533
824.643,0.26989683381679197
824.761,0.2820953092153619
824.88,0.2980701023922232
824.998,0.2981820025441144
825.117,0.30494643232364904
825.235,0.30259581560007875
825.354,0.29765493770982165
825.472,0.3045628341548856
825.591,0.3121035561657105
825.709,0.32806950550702496
825.828,0.32712211069014174
825.946,0.31552673787545293
826.064,0.31461864899433156
826.183,0.3132880213037735
826.301,0.3090595634991947
826.42,0.2988261413586444
826.538,0.2965728068260838
826.657,0.30432971148359755
826.775,0.29625811580993244
826.894,0.2848238973318662
827.012,0.2676176021872156
827.13,0.26875342196569507
827.249,0.25923438520761055
827.367,0.24412604438423277
827.486,0.23648091811358007
827.604,0.24356176067599425
827.723,0.24713454847168953
827.841,0.2501491919795707
827.959,0.25086247294861286
828.078,0.2748861391210457
828.196,0.28589855790800955
828.315,0.2955716269338983
828.433,0.301630515166512
828.552,0.31334749285200175
828.67,0.31070896014897725
828.788,0.30448474345610477
828.907,0.28331837528347653
829.025,0.25526366394616573
829.143,0.21850215020142322
829.262,0.18406977615637535
829.38,0.15019073292580548
829.499,0.12551357327811175
829.617,0.10944606724143596
829.735,0.10295158864186874
829.854,0.09992794886543879
829.972,0.10404731760670802
830.091,0.10930104548683475
830.209,0.12770283874882393
830.327,0.14634391673396446
830.446,0.167052079802256
830.564,0.18764358399160644
830.682,0.2069763600995177
830.801,0.22200134872837474
830.919,0.2358287222918841
831.037,0.23493334351929876
831.156,0.2377140523888131
831.274,0.23243114853684416
831.392,0.21670957079500017
831.511,0.2135354303966391
831.629,0.21315299408574268
831.747,0.20876036967877376
831.866,0.20715551876569327
831.984,0.20844849796663342
832.102,0.2188810898805294
832.221,0.21367679790008406
832.339,0.20779644382453968
832.457,0.21535184124068907
832.576,0.2164777702146417
832.694,0.20665797872739494
832.812,0.19294296900617797
832.93,0.18593748251945869
833.049,0.1810063667925556
833.167,0.16534964384471812
833.285,0.16737567874761072
833.404,0.17025956569849954
833.522,0.17679104348806063
833.64,0.1810771696972429
833.759,0.184352150708959
833.877,0.19198419469984343
833.995,0.19946982408001585
834.113,0.21594373832046204
834.232,0.24516653282516904
834.35,0.2651072305997847
834.468,0.28393557039234835
834.586,0.3052401841378902
834.705,0.308709729531626
834.823,0.3055414850236291
834.941,0.2920672241589522
835.059,0.27911180164632765
835.178,0.26617898004676616
835.296,0.2481609530080534
835.414,0.23951444370328961
835.532,0.251105578073757
835.651,0.2574208732166295
835.769,0.26927830530188146
835.887,0.2885223053651238
836.005,0.30573025795591735
836.124,0.32929398035935464
836.242,0.34318352932347895
836.36,0.35117620527497573
836.478,0.36407819260309093
836.596,0.36651300923790386
836.715,0.37253350986256495
836.833,0.38946239030945207
836.951,0.3937249329571779
837.069,0.4064628180034894
837.188,0.4133166044662961
837.306,0.4205418320220494
837.424,0.42582829429636404
837.542,0.4295906689115241
837.66,0.4407189758883997
837.779,0.45477164448593504
837.897,0.4540816392277047
838.015,0.46135305125797743
838.133,0.46027489988410175
838.251,0.4627215082996437
838.369,0.4575791231680233
838.487,0.4585242448374739
838.606,0.4557647820613979
838.724,0.46186684250276494
838.842,0.4554548756460466
838.96,0.4541605416254827
839.078,0.4533791500666071
839.196,0.4540098242499656
839.315,0.453731548668838
839.433,0.44946765120148857
839.551,0.4451379162917387
839.669,0.4460692808836731
839.787,0.4333428154468608
839.905,0.43135866225368186
840.023,0.43292678300495346
840.142,0.4322957366503659
840.26,0.4335474446187567
840.378,0.4340955763370156
840.496,0.44262576096005235
840.614,0.44916018669479607
840.732,0.44491004630496295
840.85,0.4393559314962401
840.968,0.4320301016330652
841.087,0.4255277311240949
841.205,0.4229205788490946
841.323,0.4197454558023398
841.441,0.42655010984544395
841.559,0.43844979581164
841.677,0.4373205467212744
841.795,0.4488478089461299
841.913,0.4578624392274281
842.031,0.476163096832394
842.149,0.4879045764071502
842.267,0.4973289710687624
842.385,0.5126669437657007
842.504,0.5148610115439745
842.622,0.523313566943882
842.74,0.5367412711628086
842.858,0.5354547983293966
842.976,0.5492706486639686
843.094,0.5439828315700304
843.212,0.5459764390759201
843.33,0.5367963516931936
843.448,0.5216270223488001
843.566,0.5235577403574715
843.684,0.5187789351316451
843.802,0.5223113700225994
843.92,0.5291513994078889
844.038,0.5342550890809119
844.156,0.5439113887635169
844.274,0.5455168501537613
844.392,0.5554099680993297
844.51,0.5593452888318402
844.628,0.5548121457045232
844.746,0.5469605989505368
844.864,0.5358191453733082
844.982,0.5259659438406645
845.1,0.5046973159144712
845.218,0.47289273190739267
845.336,0.44403314513724873
845.454,0.4126127766522392
845.572,0.37919468398214873
845.69,0.34705698216949094
845.808,0.3244264035691594
845.926,0.30606346694413866
846.044,0.2970140717978186
846.162,0.2816364209938879
846.28,0.27453070437097665
846.398,0.2635857804725553
846.516,0.2634568674473203
846.634,0.24874446960615393
846.752,0.2271437065227747
846.87,0.2073814785846423
846.988,0.1994031701878242
847.106,0.18504059517493543
847.224,0.17870920548652672
847.342,0.17097459389143044
847.46,0.1695946032815417
847.578,0.1554081944876365
847.696,0.1546306124052968
847.814,0.1545696679414058
847.932,0.15826197137110518
848.05,0.16538203933840667
848.168,0.17776576147908535
848.285,0.19181944157672856
848.403,0.19339037294585354
848.521,0.1969049828383874
848.639,0.20659062464548555
848.757,0.21343444729702327
848.875,0.22576243063569235
848.993,0.2358342532616483
849.111,0.25348032970885626
849.229,0.267635056412044
849.347,0.2786698744641585
849.465,0.28308065969205665
849.582,0.28572660840426095
849.7,0.2938626136939605
849.818,0.3095768033984878
849.936,0.315840863497543
850.054,0.3272530185329678
850.172,0.3377886512009099
850.29,0.3437107496588395
850.408,0.33814372309366614
850.525,0.3388057046983054
850.643,0.33939005707981573
850.761,0.34280541948455223
850.879,0.33791052442090164
850.997,0.33159668507625883
851.115,0.33365992329079774
851.233,0.3322268985193463
851.35,0.3307928910995006
851.468,0.3334427704052806
851.586,0.33691807436205334
851.704,0.3458817152616322
851.822,0.3573019771463082
851.94,0.39927916481621506
852.057,0.4457996273359607
852.175,0.5023249244796133
852.293,0.5667895293229033
852.411,0.6196357908792742
852.529,0.6644641328644847
852.647,0.6997239361127416
852.764,0.7306807220435021
852.882,0.7671150357847343
853.0,0.7911925459709275
853.118,0.8167951264646693
853.236,0.8407841982953993
853.353,0.8507155022010087
853.471,0.846524183387491
853.589,0.8357029358593928
853.707,0.8115894035051303
853.824,0.7749274511589908
853.942,0.7435570604147508
854.06,0.7153675025220148
854.178,0.6925972505224034
854.296,0.6686143410497078
854.413,0.6370136993971224
854.531,0.6053783507117271
854.649,0.5463734187992553
854.767,0.4859663701205793
854.884,0.4246711297857816
855.002,0.37233973059349623
855.12,0.32941239902425257
855.238,0.2922680757460174
855.355,0.2633075887577829
855.473,0.23594519248944024
855.591,0.20286106294599754
855.708,0.17600187801981615
855.826,0.14378813765495843
855.944,0.11509099904641447
856.062,0.09162054819632193
856.179,0.07974962523352727
856.297,0.06833177899559742
856.415,0.05953513942092281
856.532,0.050491763712095926
856.65,0.037191468827156925
856.768,0.026007394726822265
856.886,0.01686632467884483
857.003,0.02208302425400777
857.121,0.030094492482049554
857.239,0.04251953982947133
857.356,0.0534137501830111
857.474,0.04657036041204383
857.592,0.04734623843716934
857.709,0.049233303767480266
857.827,0.04472795317437739
857.945,0.0517671019422998
858.062,0.04850916415436082
858.18,0.05296785436460995
858.298,0.05914254278639966
858.415,0.060135083219892166
858.533,0.06715979565392612
858.651,0.07350987717397864
858.768,0.07880744910689572
858.886,0.08949615468960379
859.003,0.09160626632392174
859.121,0.08622563738070002
859.239,0.0863049849839927
859.356,0.07978369934341947
859.474,0.0752475986277126
859.592,0.07454734577661085
859.709,0.07617055570463185
859.827,0.07230567609900879
859.944,0.06773888998496749
860.062,0.055027766545193
860.18,0.05384884204993082
860.297,0.05444766473458067
860.415,0.06740975332248005
860.532,0.08194401831389203
860.65,0.09023614553230888
860.768,0.09340073464420134
860.885,0.10175727746294932
861.003,0.10808163186055275
861.12,0.11876641596192597
861.238,0.1267891532853857
861.356,0.13742125898621846
861.473,0.14917578157412012
861.591,0.14923987891072354
861.708,0.14471009500519516
861.826,0.13900604626879032
861.943,0.12493671175393245
862.061,0.11454739547475029
862.178,0.11032812846173866
862.296,0.10502694836478843
862.414,0.10964987341676963
862.531,0.11671246562122581
862.649,0.11766906531744237
862.766,0.1183364403732807
862.884,0.11446907770294756
863.001,0.11817670269233665
863.119,0.11785187769012268
863.236,0.11598231221037769
863.354,0.11595619511784969
863.471,0.11700116477482406
863.589,0.11566222942786014
863.706,0.115882757082236
863.824,0.12014295228450576
863.941,0.1333128204755262
864.059,0.1435101772745789
864.176,0.15644519249942407
864.294,0.1623857164555004
864.411,0.16272907515913118
864.529,0.15421189329371315
864.646,0.14716966666774753
864.764,0.15509907097335862
864.881,0.15874904152293026
864.999,0.16725034719387183
865.116,0.17820532590472837
865.233,0.1898511064365943
865.351,0.20119128331791403
865.468,0.20810855977766463
865.586,0.22998960598183982
865.703,0.2535028311685136
865.821,0.2620385295332466
865.938,0.27157947720508135
866.056,0.2685042021458506
866.173,0.25760114997970596
866.29,0.24846588227443728
866.408,0.24284063463267558
866.525,0.23809977054554893
866.643,0.23711164067525684
866.76,0.2413708532291326
866.878,0.24085832518155548
866.995,0.23606538072954508
867.112,0.23378113762751596
867.23,0.22989910823677956
867.347,0.2323905363297794
867.465,0.22559790239589986
867.582,0.2335852829567595
867.699,0.23691982337184514
867.817,0.23933853548368664
867.934,0.2458922320376438
868.051,0.2570918901986166
868.169,0.2642528634600895
868.286,0.2749896942274699
868.404,0.27998097983490466
868.521,0.29614006444059154
868.638,0.3045696367787686
868.756,0.3151747926613479
868.873,0.32856477409263357
868.99,0.34702816918234203
869.108,0.3692708299955242
869.225,0.39111355291233213
869.342,0.4176936237368015
869.46,0.45571073921948935
869.577,0.48938749674570714
869.694,0.5154163018211202
869.812,0.5361673023721505
869.929,0.5479182262821785
870.046,0.5690023446387882
870.164,0.5762114676715688
870.281,0.5736845104162123
870.398,0.564930510287831
870.516,0.5577310599188197
870.633,0.5503861775874905
870.75,0.535500451480307
870.867,0.5259731070658175
870.985,0.5349097259753188
871.102,0.5272897020936587
871.219,0.5046135395185346
871.337,0.48266551940339353
871.454,0.46319868648320056
871.571,0.43535182805864386
871.688,0.39808923272240654
871.806,0.3735175413951818
871.923,0.35160391397383217
872.04,0.31899612408015715
872.157,0.2891554720640959
872.275,0.27563857516980894
872.392,0.26288617872608416
872.509,0.24876200512428098
872.626,0.23541805434734484
872.744,0.23164509892834778
872.861,0.21871680842209024
872.978,0.19681693807825748
873.095,0.1791326293448517
873.213,0.17123549861607334
873.33,0.15648636063566174
873.447,0.14336154045059635
873.564,0.12450045564955757
873.681,0.11521466076001285
873.799,0.09962214969426399
873.916,0.08612907014434151
874.033,0.08407477341311348
874.15,0.08519239964132376
874.267,0.08238184161297502
874.385,0.07713236872512089
874.502,0.07077393014156313
874.619,0.07038060059815286
874.736,0.06317799296324787
874.853,0.056451363494639625
874.97,0.06081889457012055
875.088,0.06299538178290025
875.205,0.07059442165283247
875.322,0.0716054546423712
875.439,0.07852330130812438
875.556,0.0779072997107261
875.673,0.07286665227945421
875.791,0.06786488550221015
875.908,0.06975991521046328
876.025,0.05996328608764087
876.142,0.05834944779899756
876.259,0.06080734712851146
876.376,0.06271098333393924
876.493,0.05911247605421582
876.61,0.0666361562308471
876.728,0.0736101239151053
876.845,0.0781454336586256
876.962,0.07086612967951458
877.079,0.06687088053394913
877.196,0.06906992597518351
877.313,0.0638568623805883
877.43,0.06100271189026207
877.547,0.06883097552924113
877.664,0.06740649030585935
877.781,0.06648809253777077
877.898,0.0797126436786457
878.016,0.0859618480035089
878.133,0.0967466409329692
878.25,0.09880088349601097
878.367,0.09583725167021208
