wavelength_nm,intensity
792.446,0.30253595341606715
792.565,0.2813750788716106
792.684,0.26083870265986503
792.803,0.24092682478083036
792.922,0.22163944523450638
793.041,0.19014597966776992
793.16,0.1634619813232405
793.279,0.15483033040403482
793.398,0.14801699988437217
793.518,0.16424516766074504
793.637,0.1802018568812248
793.756,0.20643273993822042
793.875,0.2289088206664066
793.994,0.25588773456446023
794.113,0.25935055096444926
794.232,0.25437311859255296
794.351,0.24027576451747054
794.47,0.2212810544790647
794.589,0.1926049113358953
794.708,0.17780640041501705
794.827,0.15921695512731487
794.946,0.14837636718138186
795.066,0.14565767545617891
795.185,0.1578371018917863
795.304,0.16953314025125302
795.423,0.16920013957657837
795.542,0.16668456849751123
795.661,0.1657256046777737
795.78,0.1556418364470103
795.899,0.14554537317586336
796.018,0.14372217006848045
796.137,0.13921474097756792
796.256,0.13316451053193687
796.375,0.12740838402390625
796.494,0.11942709787824152
796.613,0.11600313002165477
796.732,0.1188479610855572
796.851,0.12696530500052444
796.97,0.12766800836287248
797.089,0.11841118089355104
797.208,0.12464950104207141
797.327,0.1327749263860893
797.446,0.14517870315408138
797.565,0.16439330770322946
797.684,0.17411726731237376
797.803,0.1783901017223289
797.922,0.17400502384099095
798.041,0.15450528693824653
798.16,0.1456389435907
798.279,0.13570533150778447
798.398,0.13505868089231882
798.517,0.13346254416765874
798.636,0.1212026246770091
798.755,0.12934372628104107
798.874,0.13952953835005547
798.993,0.14334562113875254
799.112,0.14984621669777404
799.231,0.15971978683253218
799.35,0.1593240458386143
799.469,0.15108960567867502
799.588,0.1477027178620933
799.707,0.15009012033686397
799.826,0.1470723652329718
799.945,0.1473309070895883
800.064,0.14866169158782583
800.183,0.15860947888174964
800.302,0.1593006286529725
800.421,0.17093099706849235
800.54,0.17850871797697476
800.659,0.17468824570421823
800.778,0.17675534254469746
800.897,0.18232041128161208
801.016,0.18601833254058536
801.135,0.19151797299244624
801.254,0.1980547005894812
801.373,0.21008740413099963
801.492,0.20602572609095587
801.611,0.2074834609930267
801.729,0.21927984147509907
801.848,0.23647063757858694
801.967,0.237982082266896
802.086,0.2346274203220563
802.205,0.2249379332258548
802.324,0.20346061286279843
802.443,0.16904359300759203
802.562,0.1363092594092866
802.681,0.11306931619509722
802.8,0.1030052857575047
802.919,0.08957943586942527
803.038,0.07806530744595681
803.157,0.077702623959305
803.276,0.07319637549790695
803.394,0.06307886151678858
803.513,0.0507763381990581
803.632,0.042927136509472795
803.751,0.042418451994244905
803.87,0.04359181459850628
803.989,0.05213075887786803
804.108,0.06783261858290604
804.227,0.07864138853756003
804.346,0.08247269707451008
804.465,0.08795944495917438
804.583,0.08722635766432854
804.702,0.08997545703002127
804.821,0.08980964159248009
804.94,0.09418768491351501
805.059,0.085548708040704
805.178,0.08500163836963118
805.297,0.07769412782342067
805.416,0.07935011939697244
805.535,0.07966142431597843
805.653,0.08558781192409257
805.772,0.09795296496884048
805.891,0.1053198508122924
806.01,0.10456661139791937
806.129,0.12080358267953942
806.248,0.13610478608320736
806.367,0.15468524746841678
806.485,0.18460965584440947
806.604,0.21612192080990644
806.723,0.24570063347084087
806.842,0.26642113756880287
806.961,0.279863477360753
807.08,0.2855149685235119
807.198,0.2847994086631662
807.317,0.27617190901920197
807.436,0.2701996258985234
807.555,0.25742963692326953
807.674,0.24590278536402987
807.793,0.23638760943478965
807.912,0.22908527669854856
808.03,0.22720567928919388
808.149,0.2371959446384029
808.268,0.2640598717404068
808.387,0.28856349787264945
808.506,0.3223266911522966
808.624,0.3515899808867804
808.743,0.3651114205457359
808.862,0.37212909336207256
808.981,0.3634000333950411
809.1,0.35357529378875774
809.219,0.33690695087420464
809.337,0.3039811439362395
809.456,0.27577398585466084
809.575,0.24920839414882412
809.694,0.22979694596986827
809.812,0.22897494307861457
809.931,0.2382445207506682
810.05,0.25777266759415046
810.169,0.2830594800638978
810.288,0.30488542921679196
810.406,0.3185152649897911
810.525,0.32096565289277457
810.644,0.3187471955593373
810.763,0.32696699104583316
810.882,0.3313636262937623
811.0,0.32217266216508467
811.119,0.3231162464287045
811.238,0.33768844481478555
811.357,0.3369924157857992
811.475,0.3348823545664057
811.594,0.33227132752264843
811.713,0.339054630362674
811.832,0.340247232726124
811.95,0.33796041748292943
812.069,0.33054382938323656
812.188,0.3337900986641078
812.307,0.31892542802557766
812.425,0.3134218848575202
812.544,0.2929762791580941
812.663,0.27197990401433814
812.782,0.2523223673602565
812.9,0.2472338543585823
813.019,0.24519898683992153
813.138,0.25243540496748085
813.257,0.27244401026239967
813.375,0.29847201778222915
813.494,0.30895446008169036
813.613,0.32271222280009226
813.731,0.32620067438981837
813.85,0.33638722459418774
813.969,0.343884379320393
814.088,0.3514723524124187
814.206,0.365771119159471
814.325,0.3739108382373946
814.444,0.38156521615604155
814.562,0.3957272670835795
814.681,0.4007469358518685
814.8,0.41210631247935925
814.918,0.41505180695729965
815.037,0.4152707973774934
815.156,0.4152603005292165
815.274,0.41565116226537124
815.393,0.41355477262792983
815.512,0.4191525540044517
815.631,0.42382066780827493
815.749,0.42947704167887457
815.868,0.43546055697474095
815.987,0.4369929958038419
816.105,0.4397373227187823
816.224,0.4390129739843259
816.343,0.4320192283835611
816.461,0.42656841846017435
816.58,0.4109098195268933
816.698,0.3876625160689885
816.817,0.366752076583214
816.936,0.34730059019997306
817.055,0.3383039578433204
817.173,0.3276120493246877
817.292,0.31681467431671495
817.41,0.30920082482029443
817.529,0.30332717239798024
817.648,0.2946488925924826
817.766,0.29445285284629263
817.885,0.2974725644833977
818.004,0.3019033786862061
818.122,0.3001331539324634
818.241,0.29884924687956493
818.359,0.3043386321420428
818.478,0.3077763035702352
818.597,0.3055617524030705
818.715,0.32146798438319035
818.834,0.31183759859554583
818.953,0.3268490217634027
819.071,0.3424486630225373
819.19,0.4576019889607965
819.308,0.5777612558525939
819.427,0.7050731448301366
819.546,0.7789128540324635
819.664,0.8068552445271432
819.783,0.7393418505565474
819.901,0.6351350323714084
820.02,0.5046470690583069
820.138,0.44773772941509554
820.257,0.38016559025848395
820.376,0.34835070228119186
820.494,0.313249505184377
820.613,0.2987594245268929
820.731,0.28690836116709173
820.85,0.27671253576498406
820.969,0.28930430785124206
821.087,0.3048745317197804
821.206,0.3297404547737377
821.324,0.35144824239690986
821.443,0.36769716265518093
821.561,0.3730449493903055
821.68,0.37683808194923674
821.798,0.359567212887253
821.917,0.3471936997885927
822.035,0.3261240840272413
822.154,0.3143003638313431
822.273,0.30695213364140905
822.391,0.3046223505692258
822.51,0.29258965047778385
822.628,0.2839377372946224
822.747,0.2751881699546649
822.865,0.28068243792498393
822.984,0.2782598834038447
823.102,0.27932358228032556
823.221,0.2946193979682673
823.339,0.3040940493695945
823.458,0.3054057898043372
823.576,0.30129479491219346
823.695,0.31022844228487034
823.813,0.31571978063048534
823.932,0.3142864627176901
824.05,0.30521268357716946
824.169,0.3144715192919772
824.287,0.30592311951501944
824.406,0.30312947919805483
824.524,0.30291293207893877
824.643,0.3129422590908677
824.761,0.3158623634880417
824.88,0.32680573340758157
824.998,0.3220443618311757
825.117,0.3355003732050789
825.235,0.3356910439198024
825.354,0.3382605698940786
825.472,0.34363960595937826
825.591,0.34249925051697144
825.709,0.3444301183058013
825.828,0.3486714834444262
825.946,0.3358263007684408
826.064,0.3357933434641012
826.183,0.3254940046557897
826.301,0.3140530887545321
826.42,0.31026728220451955
826.538,0.30229211232795505
826.657,0.3079797355287306
826.775,0.30913034660476024
826.894,0.3021981231227782
827.012,0.296718016952354
827.13,0.2919341849198858
827.249,0.27769254780171715
827.367,0.26965683234793936
827.486,0.262333992238773
827.604,0.2566361172986938
827.723,0.2532262792523469
827.841,0.25326851564874164
827.959,0.25115064209680704
828.078,0.2638683880453332
828.196,0.27281863662466643
828.315,0.2897540656052151
828.433,0.30446688597708493
828.552,0.3097160420138467
828.67,0.31239005793589586
828.788,0.30604375939469086
828.907,0.2770124002297563
829.025,0.2472730484280502
829.143,0.21241340138903858
829.262,0.18311523542899835
829.38,0.14946620437204744
829.499,0.1181794768529717
829.617,0.09670912386955055
829.735,0.091980371583305
829.854,0.08872457311737815
829.972,0.09403626849561858
830.091,0.10914596435440672
830.209,0.1290508418092667
830.327,0.1532091459287577
830.446,0.17735611081398867
830.564,0.20110072718228222
830.682,0.22436430474973107
830.801,0.24103459035224994
830.919,0.2508610229017509
831.037,0.25709085285645217
831.156,0.2509605961854734
831.274,0.2460441806834699
831.392,0.23777432143708882
831.511,0.23248877322239592
831.629,0.22540248235638333
831.747,0.22350162721624273
831.866,0.22535362132177555
831.984,0.23694954719242145
832.102,0.23924489116980863
832.221,0.23809109032915812
832.339,0.236904087075197
832.457,0.2394494256939822
832.576,0.22463576140069613
832.694,0.21264918494665683
832.812,0.2038637117523931
832.93,0.20497548734941246
833.049,0.1886140249284254
833.167,0.1808584843270099
833.285,0.18066036129894086
833.404,0.18245042481248303
833.522,0.18205655895223372
833.64,0.18522018193330866
833.759,0.19295300528976994
833.877,0.2046502483932852
833.995,0.21191303649420695
834.113,0.22809750836001885
834.232,0.2459381947250922
834.35,0.25695480861325554
834.468,0.2770454467509109
834.586,0.29029931737127246
834.705,0.3011753092736494
834.823,0.3099273232657117
834.941,0.3066151427271859
835.059,0.30267309287732536
835.178,0.29311006976228243
835.296,0.2888096291569806
835.414,0.283311948589359
835.532,0.28177902678765854
835.651,0.29314231293244875
835.769,0.30359546233589957
835.887,0.31339237580568036
836.005,0.33464998111704936
836.124,0.35714877076129625
836.242,0.39334355589619363
836.36,0.4066013326828273
836.478,0.4247115445206583
836.596,0.4404331356832571
836.715,0.4468228956224224
836.833,0.4558395523794022
836.951,0.4644323900958871
837.069,0.46877043620076664
837.188,0.48538263327334585
837.306,0.48536042127728063
837.424,0.49567099561180883
837.542,0.48784231032146486
837.66,0.49703181493597404
837.779,0.5019841056871008
837.897,0.503707950014549
838.015,0.5013850060843674
838.133,0.5005298041308309
838.251,0.4907529184124042
838.369,0.4900793531905083
838.487,0.47781716918162137
838.606,0.4807255584310056
838.724,0.47654034973072235
838.842,0.46783473011234844
838.96,0.4610616862569688
839.078,0.46321423233275083
839.196,0.46938134079441984
839.315,0.4771392354702968
839.433,0.4800183284726416
839.551,0.4720900359423638
839.669,0.468019082605531
839.787,0.4545401278029637
839.905,0.4502914439007619
840.023,0.4465134530343173
840.142,0.4475703194708469
840.26,0.44082950148720945
840.378,0.44167641148662773
840.496,0.4370761726199605
840.614,0.43823752900426205
840.732,0.4339282995248471
840.85,0.4376931157293324
840.968,0.43287803771771394
841.087,0.4363225482879083
841.205,0.43084146892694053
841.323,0.4363904265760903
841.441,0.4437166898789286
841.559,0.44670515553688483
841.677,0.4540743866687133
841.795,0.46502459573025434
841.913,0.4791612599280516
842.031,0.4994110743412838
842.149,0.517520309637546
842.267,0.5276795200290393
842.385,0.5354930775742905
842.504,0.5348458789747293
842.622,0.5490801973293231
842.74,0.5455219283156707
842.858,0.5440026780959206
842.976,0.5569294072910147
843.094,0.5651990097485038
843.212,0.5610880182073856
843.33,0.5522847444322154
843.448,0.5442871174506132
843.566,0.5454680046662745
843.684,0.5270711865274573
843.802,0.5162171754595691
843.92,0.519546454124744
844.038,0.5246012817405055
844.156,0.5321726569769021
844.274,0.5474069538970873
844.392,0.5533943787102518
844.51,0.5627743089305122
844.628,0.5619171538938392
844.746,0.5525816649641304
844.864,0.5517206037611857
844.982,0.5492003984342755
845.1,0.5289979549362985
845.218,0.5107300402844519
845.336,0.4653250120005419
845.454,0.4255448631480862
845.572,0.38521492139286834
845.69,0.3462521378327957
845.808,0.3344157259475389
845.926,0.3219924125799377
846.044,0.3125280201632579
846.162,0.311819299444915
846.28,0.3021576456315074
846.398,0.2864385044720388
846.516,0.27006215083733254
846.634,0.24390670994106634
846.752,0.22983206478204343
846.87,0.2116823116599199
846.988,0.19890744332785276
847.106,0.1821902766859278
847.224,0.17806659010442571
847.342,0.16750765100392406
847.46,0.15827280795731813
847.578,0.14386639854477884
847.696,0.14488143395465913
847.814,0.14702269175881783
847.932,0.14907053156458439
848.05,0.1492884129303112
848.168,0.16212956851004806
848.285,0.16918239147016587
848.403,0.1771988339899311
848.521,0.18340219421536097
848.639,0.18881455577074246
848.757,0.19961840332283542
848.875,0.21777170271540158
848.993,0.2271126909986893
849.111,0.24011180399555823
849.229,0.2446892225103331
849.347,0.24933792855956927
849.465,0.24875920759551134
849.582,0.2399248042159126
849.7,0.2384242280116997
849.818,0.24228095884931977
849.936,0.24633104491739594
850.054,0.2548292778275335
850.172,0.25318026730499016
850.29,0.25427045588057684
850.408,0.24424174216336142
850.525,0.24366399774087077
850.643,0.2536690342903715
850.761,0.25699354997345214
850.879,0.26698784456570523
850.997,0.2672489493500929
851.115,0.2688811184958975
851.233,0.26866762407825623
851.35,0.26885744132818273
851.468,0.27964957038145966
851.586,0.3019228986492521
851.704,0.313885901042514
851.822,0.3390019418146403
851.94,0.3641267714608782
852.057,0.3998871153237774
852.175,0.4493795867153416
852.293,0.5097126460528387
852.411,0.5578770209119761
852.529,0.6062386571678416
852.647,0.6425439112256626
852.764,0.6818129689422446
852.882,0.7143780687947756
853.0,0.7452029715732006
853.118,0.7779907229032269
853.236,0.8010101289289413
853.353,0.8022126197848432
853.471,0.792473938913312
853.589,0.7657395285929903
853.707,0.7414952992709687
853.824,0.7153516965992632
853.942,0.6981776282292778
854.06,0.6694793928157867
854.178,0.6465710723587352
854.296,0.6235865816593827
854.413,0.599139231691225
854.531,0.563422592028799
854.649,0.5251239764606845
854.767,0.48163308937572247
854.884,0.4447426467486073
855.002,0.3956219975243508
855.12,0.3478255386662489
855.238,0.3034547876285535
855.355,0.262851533960051
855.473,0.22128833993024302
855.591,0.18050930877950772
855.708,0.147034200056204
855.826,0.12811867383998451
855.944,0.11345565442033405
856.062,0.09958522478376991
856.179,0.08664395682311751
856.297,0.07750621989540929
856.415,0.06752371722099523
856.532,0.06063880104408065
856.65,0.04514438484597199
856.768,0.038774759707537534
856.886,0.03036133315917485
857.003,0.03273992211471029
857.121,0.032974675606458476
857.239,0.03251986837786002
857.356,0.04066386808088375
857.474,0.04322972718126989
857.592,0.03461726165822067
857.709,0.04217449017140744
857.827,0.03508004504312263
857.945,0.04536663357337746
858.062,0.05129462143645567
858.18,0.0572650539937983
858.298,0.06666342429137923
858.415,0.06525160632897774
858.533,0.06635121499778418
858.651,0.07733237672891188
858.768,0.07134595016379494
858.886,0.08734649136285941
859.003,0.08346466664212523
859.121,0.08277864045900744
859.239,0.0855346989009244
859.356,0.08051030321975906
859.474,0.07421848049958579
859.592,0.08173996774305338
859.709,0.07753130171489178
859.827,0.08322826612518956
859.944,0.06632189817282996
860.062,0.06371787110494673
860.18,0.06725399535733569
860.297,0.06977982626135047
860.415,0.07328650738115725
860.532,0.09105852087340598
860.65,0.0918599004642845
860.768,0.10570587613078772
860.885,0.11974802466182788
861.003,0.1323748766121411
861.12,0.1406461137156324
861.238,0.15700526646195417
861.356,0.1618873168653479
861.473,0.16495690611860658
861.591,0.16210279422061502
861.708,0.17089979976996406
861.826,0.17588634012112989
861.943,0.1600318620385287
862.061,0.1399295325093853
862.178,0.1295565681193141
862.296,0.11664095256610027
862.414,0.11010866182221096
862.531,0.11909680929775024
862.649,0.12569251142926438
862.766,0.1299953983332941
862.884,0.1283075344275371
863.001,0.12606401836961054
863.119,0.12810947287816798
863.236,0.13470268146871894
863.354,0.1363663082242036
863.471,0.14173102752225972
863.589,0.14356359596900148
863.706,0.14241868917503073
863.824,0.1515294219277845
863.941,0.15356413447909412
864.059,0.15934583702666938
864.176,0.1723344163457954
864.294,0.1687999123350245
864.411,0.16818429107088856
864.529,0.1667229848088986
864.646,0.16596185885113665
864.764,0.17051995481405724
864.881,0.17230467272396882
864.999,0.17700827338051514
865.116,0.1918415397215188
865.233,0.2010186773008932
865.351,0.21738023119575534
865.468,0.22471854100265953
865.586,0.24653798572085472
865.703,0.26152652217116396
865.821,0.27359519933327037
865.938,0.273045982895755
866.056,0.2695388220488862
866.173,0.2625219708067662
866.29,0.2525335035733413
866.408,0.2424503118078243
866.525,0.2456168360364
866.643,0.2427454037502738
866.76,0.25157684561459015
866.878,0.24684998434933847
866.995,0.2451211056977265
867.112,0.24011885971030983
867.23,0.2369779019514265
867.347,0.2416356051542785
867.465,0.2378735669581724
867.582,0.24443943238481963
867.699,0.2520589861632964
867.817,0.24972855790582033
867.934,0.25790278729489874
868.051,0.263741129253415
868.169,0.2660629450257043
868.286,0.27464341570705475
868.404,0.2746371563813256
868.521,0.2933795186188761
868.638,0.30758291564854484
868.756,0.32011740313856857
868.873,0.33914686859709964
868.99,0.3604223796619407
869.108,0.3716287706195376
869.225,0.39335349080564075
869.342,0.4087492450897898
869.46,0.4435117717497382
869.577,0.468423923613666
869.694,0.492732572788594
869.812,0.5096263418379955
869.929,0.5262847643695184
870.046,0.5420838303212357
870.164,0.5494953807457377
870.281,0.5524509719956343
870.398,0.5699863288551861
870.516,0.5676021908114729
870.633,0.5733526440288733
870.75,0.5666072713426471
870.867,0.5659574711236321
870.985,0.5626270643005649
871.102,0.5452559428133571
871.219,0.5288857764333093
871.337,0.508566475952428
871.454,0.490162173486318
871.571,0.47164263911518833
871.688,0.4421213874394122
871.806,0.4207571874808128
871.923,0.3951635859913751
872.04,0.36299200050015334
872.157,0.330385854011189
872.275,0.2993216666580346
872.392,0.2900802537241004
872.509,0.2739200437811635
872.626,0.2531173552241408
872.744,0.25165604896215005
872.861,0.23967250730538125
872.978,0.2196666766678143
873.095,0.20306995264399874
873.213,0.19294769921576355
873.33,0.17889877214275787
873.447,0.1580013590536431
873.564,0.13458028463546845
873.681,0.12027784600330654
873.799,0.09553240984086155
873.916,0.07484458272607342
874.033,0.07116930946491246
874.15,0.0740504826159569
874.267,0.0703578010746991
874.385,0.07267245051404925
874.502,0.06825665453563
874.619,0.06743058330594294
874.736,0.05758480702540513
874.853,0.057301124588631756
874.97,0.06060472825061323
875.088,0.06876953790154589
875.205,0.07051402795993902
875.322,0.07635730672121334
875.439,0.07316846668770104
875.556,0.07405308575485924
875.673,0.06612397843366265
875.791,0.06603427079461312
875.908,0.06501164968869128
876.025,0.06876455877663178
876.142,0.06558877591996387
876.259,0.06351129770231453
876.376,0.06094125159100873
876.493,0.059634856862934814
876.61,0.06041783986710335
876.728,0.06356584767184799
876.845,0.06630364662652993
876.962,0.06437166728777191
877.079,0.06085857428634958
877.196,0.058406587219636284
877.313,0.06021852432995797
877.43,0.06226997146619698
877.547,0.06990833279134878
877.664,0.07243694006234436
877.781,0.07514859122768383
877.898,0.07908496977601358
878.016,0.07677481126443428
878.133,0.07616902038578657
878.25,0.07914941922214055
878.367,0.07835184615118848
878.484,0.07497480931385136
