wavelength_nm,intensity
792.446,206.21252775437918
792.565,187.4513156331671
792.684,169.24378316563468
792.803,151.5899303517819
792.922,134.48975719160862
793.041,106.56767926953074
793.16,82.90967061152207
793.279,75.25685675870824
793.398,69.21616411801557
793.518,83.60404290589432
793.637,97.75122905308044
793.756,121.00750610935751
793.875,140.93477883663022
793.994,164.85425935611073
794.113,167.92438922624058
794.232,163.51140221325358
794.351,151.01270091455228
794.47,134.17200827385972
794.589,108.74776584961731
794.708,95.62741952927104
794.827,79.14603424788575
794.946,69.53477883663041
795.066,67.12438922624078
795.185,77.92265762450918
795.304,88.29235459420613
795.423,87.99711649896804
795.542,85.76681346866495
795.661,84.91659701844851
795.78,75.97633727818875
795.899,67.02482212667361
796.018,65.40837191022334
796.137,61.4120893785978
796.256,56.04796056935463
796.375,50.944584043643644
796.494,43.868383007418814
796.613,40.83269622052919
796.732,43.3549208538617
796.851,50.55175058457929
796.97,51.17476674639263
797.089,42.967671932965004
797.208,48.49856090168589
797.327,55.70255562004818
797.446,66.6997328189189
797.565,83.73538373279905
797.684,92.3566374764467
797.803,96.14492857734463
797.922,92.25712251682583
798.041,74.96867351763015
798.16,67.10778157134742
798.279,58.3006501351736
798.398,57.72733028775541
798.517,56.31219691966647
798.636,45.44256345202157
798.755,52.66045672825176
798.874,61.69118844267619
798.993,65.07452397167057
799.112,70.83794608075162
799.231,79.59184438030884
799.35,79.24098077510413
799.469,71.94033362011596
799.588,68.93752196296336
799.707,71.05419082529129
799.826,68.3786518954117
799.945,68.60787487029413
800.064,69.78774719582596
800.183,78.60744636118463
800.302,79.2202191196166
800.421,89.53169317674974
800.54,96.25009364080925
800.659,92.86286639924086
800.778,94.69555257758587
800.897,99.6295374572293
801.016,102.90811108146133
801.135,107.78408730309579
801.254,113.57954404421051
801.373,124.2477280580525
801.492,120.64664800263046
801.611,121.93907444071499
801.729,132.39773464503355
801.848,147.63907883203603
801.967,148.97912431773992
802.086,146.00488408915817
802.205,137.4141936441262
802.324,118.37242094801209
802.443,87.8583224533141
802.562,58.83609206325631
802.681,38.231579550773674
802.8,29.308819319983932
802.919,17.405473022616704
803.038,7.197057236693589
803.157,6.87550238735877
803.276,2.880266600786735
803.394,-6.089912091039409
803.513,-16.997318073017784
803.632,-23.956413150638923
803.751,-24.407412379093138
803.87,-23.36711016155495
803.989,-15.796489931292143
804.108,-1.8752354006800185
804.227,7.707810208451965
804.346,11.104644871996655
804.465,15.969190555282918
804.583,15.31923602655712
804.702,17.75658502334337
804.821,17.609573207260524
804.94,21.491142433013962
805.059,13.831833396398004
805.178,13.346801923690393
805.297,6.867969721012605
805.416,8.336170343679388
805.535,8.612173001678144
805.653,13.866502863837773
805.772,24.829436304815964
805.891,31.360910592014683
806.01,30.6930892124483
806.129,45.088773180070724
806.248,58.65480619836244
806.367,75.12822635997023
806.485,101.65917960409534
806.604,129.59792505601263
806.723,155.82238479364412
806.842,174.19316487759613
806.961,186.11113110873436
807.08,191.1217380325134
807.198,190.48732331127093
807.317,182.8381899753098
807.436,177.54316919346132
807.555,166.22130858477303
807.674,156.0016124782493
807.793,147.56546615527552
807.912,141.09122459420638
808.03,139.42477524092948
808.149,148.28213541146198
808.268,172.09966874216752
808.387,193.82456138023247
808.506,223.75897782782118
808.624,249.70378388579968
808.743,261.69187998706826
808.862,267.91374232210325
808.981,260.17456569609953
809.1,251.46396049866715
809.219,236.68582283370213
809.337,207.49383235488403
809.456,182.48539165961557
809.575,158.93236221975815
809.694,141.72218992275776
809.812,140.99340290714264
809.931,149.2118020387139
810.05,166.5254392655234
810.169,188.9447041979607
810.288,208.29557086199975
810.406,220.37977085937217
810.525,222.5522825450562
810.644,220.58540029134625
810.763,227.8730634921816
810.882,231.77111630340653
811.0,223.62241586787826
811.119,224.4589968176314
811.238,237.37869465050147
811.357,236.76159594657506
811.475,234.8908175889691
811.594,232.57588338720728
811.713,238.58995351444975
811.832,239.64731368498224
811.95,237.61982537066615
812.069,231.04428510829806
812.188,233.92242449960952
812.307,220.74342103377808
812.425,215.86398466751393
812.544,197.73692925363065
812.663,179.12156215143582
812.782,161.6932080362539
812.9,157.18173703795512
813.019,155.37762534701557
813.138,161.79342707598948
813.257,179.53303832877282
813.375,202.60944611835293
813.494,211.90316992524902
813.613,224.10078983604137
813.731,227.1936478420719
813.85,236.22503398663065
813.969,242.87200454677372
814.088,249.59949458743642
814.206,262.2767681778825
814.325,269.49343570772265
814.444,276.27980020725977
814.562,288.8358616764939
814.681,293.28629544010045
814.8,303.35750842448635
814.918,305.9689811491321
815.037,306.16313785646184
815.156,306.15383136032835
815.274,306.500369020039
815.393,304.64171187455474
815.512,309.60469975071555
815.631,313.7434452026339
815.749,318.7583811307428
815.868,324.063360348895
815.987,325.4220192207268
816.105,327.8551369670175
816.224,327.2129300379835
816.343,321.012281550508
816.461,316.179598430998
816.58,302.29669886127147
816.698,281.6856607634064
816.817,263.14648413740275
816.936,245.90081400490567
817.055,237.92440794167248
817.173,228.4449715754089
817.292,218.8720287156386
817.41,212.12159667837912
817.529,206.91402178397686
817.648,199.21986680299455
817.766,199.0460581423585
817.885,201.72333173280484
818.004,205.65168757433332
818.122,204.08220791802643
818.241,202.9438970928881
818.359,207.81078107294474
818.478,210.85861743395387
818.597,208.89519838370768
818.715,222.99764918749128
818.834,214.45935790886188
818.953,227.76847203369465
819.071,241.59909978315625
819.19,343.69393380582244
819.308,450.22703052402505
819.427,563.1016354767582
819.546,628.5678544840619
819.664,653.3415524776431
819.783,593.4842387997863
819.901,501.0945685930733
820.02,385.40405902368684
820.138,334.9482902660534
820.257,275.03889315971526
820.376,246.8318424208345
820.494,215.71115300611785
820.613,202.8642606767199
820.731,192.35711868275155
820.85,183.31750915631568
820.969,194.4813628333429
821.087,208.28590915106264
821.206,230.33201391034078
821.324,249.57811866961896
821.443,263.9843965890703
821.561,268.72573944358663
821.68,272.0887273197482
821.798,256.77639052058515
821.917,245.8060450634133
822.035,227.12574289628483
822.154,216.64284332655893
822.273,210.12790912479835
822.391,208.06232557238843
822.51,197.3941446173811
822.628,189.72336625977653
822.747,181.96600781559184
822.865,186.83722079997867
822.984,184.68938616531793
823.102,185.63246062156625
823.221,199.1937168959963
823.339,207.5939342093873
823.458,208.75692208554887
823.576,205.1121177539182
823.695,213.0326813876555
823.813,217.90129696944476
823.932,216.63051861184002
824.05,208.58571428020934
824.169,216.79458960225827
824.287,209.21558613642839
824.406,206.7387471727631
824.524,206.5467566939463
824.643,215.4387488991121
824.761,218.02771080124757
824.88,227.73009261680275
824.998,223.5086649085485
825.117,235.4387523518094
825.235,235.60780083403142
825.354,237.88594022534446
825.472,242.6549887075668
825.591,241.64395060970242
825.709,243.3558562347816
825.828,247.11624670834567
825.946,235.7277194329919
826.064,235.69849951694556
826.183,226.5671150987348
826.301,216.42360946840287
826.42,213.0671168250841
826.538,205.99633846747963
826.657,211.0389800232952
826.775,212.0591107566
826.894,205.91300772367111
827.012,201.05435057818818
827.13,196.81300945002124
827.249,184.18638693657294
827.367,177.06192892528907
827.486,170.56950554603986
827.604,165.51777480748356
827.723,162.49461549749878
827.841,162.5320622481202
827.959,160.6543574835901
828.078,171.92989947230674
828.196,179.86518172076353
828.315,194.88011764887386
828.433,207.92449080642143
828.552,212.57838777349298
828.67,214.94916785744772
828.788,209.32254534399988
828.907,183.5833687179981
829.025,157.21648646429077
829.143,126.30995511108601
829.262,100.33422782325587
829.38,70.50102749845705
829.499,42.762243341366926
829.617,23.726647917699275
829.735,19.534140442427642
829.854,16.64755248431453
829.972,21.35689677464947
830.091,34.753139377863874
830.209,52.400785622011604
830.327,73.81951607770799
830.446,95.22819317862468
830.564,116.2801484504383
830.682,136.90561515902075
830.801,151.68547520936897
830.919,160.3975813687179
831.037,165.9209429393223
831.156,160.48586295148516
831.274,156.12697343983848
831.392,148.79492375503148
831.511,144.10876151611188
831.629,137.8260624806556
831.747,136.14076604260185
831.866,137.78274233182083
831.984,148.0636796600009
832.102,150.09872954229363
832.221,149.07577076657765
832.339,148.02337476142446
832.457,150.28006966536228
832.576,137.14628837882412
832.694,126.51900059877964
832.812,118.72980805683042
832.93,119.71550728977309
833.049,105.20944959123663
833.167,98.33339434918403
833.285,98.15773865272918
833.404,99.74480733542708
833.522,99.39560622202714
833.64,102.20047147912194
833.759,109.05638563246387
833.877,119.42715072713833
833.995,125.8663320505068
834.113,140.21547008383206
834.232,156.03300638555552
834.35,165.80032623706268
834.468,183.61266773359156
834.586,195.36353736864854
834.705,205.0061818954803
834.823,212.76570953919537
834.941,209.82913328680638
835.059,206.33411547597592
835.178,197.8555478815957
835.296,194.04278115301656
835.414,189.1685425629657
835.532,187.80945548806656
835.651,197.88413464693372
835.769,207.15188739887458
835.887,215.83782196899696
836.005,234.6847955001582
836.124,254.63220193175223
836.242,286.7224655062033
836.36,298.47679834472365
836.478,314.5332956854086
836.596,328.4720441083445
836.715,334.1371994576875
836.833,342.1313591360347
836.951,349.74976123862433
837.069,353.5958689689196
837.188,368.3242277814661
837.306,368.30453464596076
837.424,377.44588047149443
837.542,370.504975214777
837.66,378.65238164637117
837.779,383.0430781212551
837.897,384.57143693380135
838.015,382.5119169584686
838.133,381.75369568443443
838.251,373.0855177004436
838.369,372.4883353874483
838.487,361.6166941999942
838.606,364.1952694627564
838.724,360.4846672363411
838.842,352.76627280213347
838.96,346.76129828134566
839.078,348.66974367397756
839.196,354.13749642591677
839.315,361.0156387882455
839.433,363.5682400250331
839.551,356.53902308000244
839.669,352.92971955488497
839.787,340.97929048864194
839.905,337.21241120594857
840.023,333.8628479405713
840.142,334.7998647617743
840.26,328.8234616695574
840.378,329.57433130461334
840.496,325.49576371023215
840.614,326.5254212240759
840.732,322.70486228770324
840.85,326.0427449097723
840.968,321.77370112491496
841.087,324.8276010630015
841.205,319.968081087668
841.323,324.88778189155533
841.441,331.3832402712
841.559,334.03281120495717
841.677,340.5663648226971
841.795,350.2748102153289
841.913,362.80836383306905
842.031,380.76183087072286
842.149,396.81746241054117
842.267,405.8246091018748
842.385,412.75210211355466
842.504,412.17829642393576
842.622,424.7984301282563
842.74,421.6436720576852
842.858,420.2967061949062
842.976,431.7575325399195
843.094,439.08935455592837
843.212,435.4445531953138
843.33,427.6395786745261
843.448,420.5488898680241
843.566,421.5958633991845
843.684,405.28526117276897
843.802,395.66210483379916
843.92,398.6138402697211
844.038,403.09544583551303
844.156,409.8082202324739
844.274,423.31493402337424
844.392,428.6233794160063
844.51,436.9396170164307
844.628,436.1796641406646
844.746,427.9028281480153
844.864,427.139412068786
844.982,424.90500031856095
845.1,406.99353229127956
845.218,390.7972157791496
845.336,350.54115900727925
845.454,315.2721152224218
845.572,279.51562555011844
845.69,244.97125708993622
845.808,234.4771050799706
845.926,223.46260674965873
846.044,215.07148504272362
846.162,214.44313389855924
846.28,205.87712041673254
846.398,191.94054416434307
846.516,177.42128392926958
846.634,154.231893824066
846.752,141.75332622968492
846.87,125.66177162231669
846.988,114.3355849803165
847.106,99.51416024307821
847.224,95.858103471208
847.342,86.49655767009803
847.46,78.30895422585087
847.578,65.53624474610585
847.696,66.43617421713492
847.814,68.33461143841441
847.932,70.15022434730116
848.05,70.34339776794936
848.168,81.72835462343248
848.285,87.98138104396804
848.403,95.0887516894889
848.521,100.58864522220054
848.639,105.38724005361343
848.757,114.9659214651127
848.875,131.0606201926293
848.993,139.3423319071589
849.111,150.86733366497856
849.229,154.92566875613156
849.347,159.0472073104882
849.465,158.53411383021296
849.582,150.7015398304572
849.7,149.37113033286596
849.818,152.79050438505817
849.936,156.38130700867887
850.054,163.9158325760224
850.172,162.45382134682907
850.29,163.4203815462071
850.408,154.52893308757635
850.525,154.01670540816625
850.643,162.88716171144017
850.761,165.83467429177023
850.879,174.69560678552023
850.997,174.92710204983314
851.115,176.37418172973037
851.233,176.18489777326403
851.35,176.35318957437337
851.468,185.9214813754826
851.586,205.66899395581265
851.704,216.27538099501712
851.822,238.54323989569343
851.94,260.81889100416197
852.057,292.5239793420677
852.175,336.40395945486523
852.293,389.89519497891797
852.411,432.5976859142262
852.529,475.47506862442617
852.647,507.66327384544854
852.764,542.4791846941764
852.882,571.3513725991813
853.0,598.6807033613293
853.118,627.7502938637372
853.236,648.1592783055389
853.353,649.2254056044837
853.471,640.5911000029957
853.589,616.8883961331092
853.707,595.3934844710147
853.824,572.2145901249374
853.942,556.9880767312411
854.06,531.5442473202288
854.178,511.2337512425497
854.296,490.8557226973381
854.413,469.1807244551567
854.531,437.5143842216331
854.649,403.55886649893193
854.767,364.99988557276765
854.884,332.2928526985512
855.002,288.7425297810446
855.12,246.36623283756384
855.238,207.0271653313124
855.355,171.02835756532076
855.473,134.17846754824686
855.591,98.02381562641118
855.708,68.34481468440798
855.826,51.574326348432855
855.944,38.57410666981941
856.062,26.276596371876785
856.179,14.802879970545487
856.297,6.701370722976281
856.415,-2.1491070671446844
856.532,-8.25326748643592
856.65,-21.990602792514416
856.768,-27.637906645845895
856.886,-35.097242969987555
857.003,-32.98838816579598
857.121,-32.78025593356568
857.239,-33.183487608706045
857.356,-25.963024880546136
857.474,-23.68813653628829
857.592,-31.323940634322632
857.709,-24.623708709290433
857.827,-30.913637306259446
857.945,-21.793557272974873
858.062,-16.53780862621982
858.18,-11.244428552141589
858.298,-2.9118419959396373
858.415,-4.16355851708363
858.533,-3.188646471626338
858.651,6.547241529703616
858.768,1.2396811828823187
858.886,15.425746454389781
859.003,11.984124188256317
859.121,11.375893998377416
859.239,13.819412905813437
859.356,9.3647882655507
859.474,3.786463965473251
859.592,10.45500771328602
859.709,6.723608241312698
859.827,11.774531704993073
859.944,-3.2146387419614277
860.062,-5.5233667714810535
860.18,-2.388242226101103
860.297,-0.1488428443327212
860.415,2.96017744648409
860.532,18.716828441632465
860.65,19.427330857895807
860.768,31.703160288228037
860.885,44.15291640180159
861.003,55.34787185438827
861.12,62.681143146055746
861.238,77.18515308913504
861.356,81.51357453561599
861.473,84.23506957517074
861.591,81.70461656277755
861.708,89.50403368025451
861.826,93.92509581937642
861.943,79.8685299740527
862.061,62.04582290046609
862.178,52.84916210844386
862.296,41.39818910821177
862.414,35.6066660770598
862.531,43.575549452416524
862.649,49.423292962151784
862.766,53.23822857695765
862.884,51.74176997355178
863.001,49.752670677505336
863.119,51.56616878405637
863.236,57.41170152264201
863.354,58.88667149066478
863.471,63.64302674007283
863.589,65.26778025787907
863.706,64.2527069358585
863.824,72.33027430647861
863.941,74.1342486035056
864.059,79.26030082261047
864.176,90.77596343132569
864.294,87.64227539069036
864.411,87.09646613793392
864.529,85.80087333539396
864.646,85.12605975363327
864.764,89.1672634878899
864.881,90.74959276327183
864.999,94.91980082653237
865.116,108.07096127074507
865.233,116.20740310023906
865.351,130.7135418994299
865.468,137.2196806986208
865.586,156.5647805367728
865.703,169.85360331864769
865.821,180.553681511778
865.938,180.0667467178953
866.056,176.9573011015017
866.173,170.73616717341977
866.29,161.8804012107057
866.408,152.9406525640091
866.525,155.74809006449877
866.643,153.20228081174167
866.76,161.03222913474215
866.878,156.84139823696347
866.995,155.30857599719337
867.112,150.87358925525882
867.23,148.0888189635407
867.347,152.2183343861085
867.465,148.88291474374125
867.582,154.70420505808374
867.699,161.45969450662517
867.817,159.39353893352157
867.934,166.64080327383783
868.051,171.81707194315848
868.169,173.87559169473025
868.286,181.48302919521993
868.404,181.4774796827225
868.521,198.09444099273588
868.638,210.68715987850686
868.756,221.80022508462417
868.873,238.67173184918298
868.99,257.5345806050839
869.108,267.47015663371195
869.225,286.7312737878814
869.342,300.3811355307954
869.46,331.20156004427247
869.577,353.28865122441636
869.694,374.84067746949535
869.812,389.8186777405483
869.929,404.58802000294327
870.046,418.5954575034334
870.164,425.16653136755997
870.281,427.78695588103716
870.398,443.33378732092126
870.516,441.22001270019933
870.633,446.31835929159854
870.75,440.33791800420977
870.867,439.76180572115004
870.985,436.80907006146697
871.102,421.4078495532991
871.219,406.8940749325774
871.337,388.879001610557
871.454,372.5617637863721
871.571,356.1423614600225
871.688,329.9688465795605
871.806,311.0273663311332
871.923,288.3361025329222
872.04,259.81280410267664
872.157,230.90422428714976
872.275,203.36274403872227
872.392,195.16931573834648
872.509,180.84168830377132
872.626,162.39804355317872
872.744,161.10245075063798
872.861,150.47785361909285
872.978,132.7407023749936
873.095,118.02606195340523
873.213,109.05168127207672
873.33,96.59591530936295
873.447,78.06828787478781
873.564,57.3031846016257
873.681,44.62265552118171
873.799,22.683374330312322
873.916,4.341565629916259
874.033,1.083071699941951
874.15,3.6375171946744183
874.267,0.3635890994024391
874.385,2.415755186709484
874.502,-1.4992855107375769
874.619,-2.231679511506761
874.736,-10.960935805196122
874.853,-11.212448395575413
874.97,-8.283476394128344
875.088,-1.0445635850830377
875.205,0.5020997137376169
875.322,5.682745347892624
875.439,2.8555226750466307
875.556,3.639825135257165
875.673,-3.390114202660935
875.791,-3.4696489138358184
875.908,-4.3763038560746885
876.025,-1.0489780727024232
876.142,-3.864624264436201
876.259,-5.706514562336343
876.376,-7.985115106666672
876.493,-9.143363484158641
876.61,-8.449171464937113
876.728,-5.658150608971714
876.845,-3.230820546307737
876.962,-4.943711670542171
877.079,-8.058416729766494
877.196,-10.232346232558605
877.313,-8.625884438854218
877.43,-6.8070732740521755
877.547,-0.03490907173773694
877.664,2.2069518344701735
877.781,4.61109929088959
877.898,8.101088930942057
878.016,6.052904496111278
878.133,5.51581085418605
878.25,8.158229751249022
878.367,7.451102192089681
878.484,4.457024404173947
878.601,-2.222047820299056
878.718,1.6286025657832255
878.835,1.8144884674382022
878.952,-1.788701385265032
879.069,-0.24088562354232845
879.186,-2.2668783878233008
879.303,-7.225850075228146
879.42,-6.978900131270915
879.537,-8.903588577611075
879.654,-1.411869066005416
879.771,-5.875114716122702
879.888,-9.240722600240431
880.005,-10.6976415346165
880.122,-12.593383644624193
880.239,-14.927948930263533
880.356,-17.701337391534512
