wavelength_nm,intensity
792.446,81.79179837775699
792.565,125.66331352927216
792.684,156.5201100660687
792.803,174.36218798814664
792.922,179.18954729550583
793.041,165.89517500113357
793.16,137.75837846433708
793.279,107.82244772840642
793.398,82.55837846433715
793.518,58.82591093186965
793.637,47.05794556390424
793.756,51.45188495784362
793.875,73.86487197083056
793.994,101.06487197083058
794.113,133.12980703576565
794.232,167.80946071541933
794.351,182.0787247846834
794.47,170.82850833446693
794.589,151.42764253360116
794.708,130.37136547732408
794.827,107.98262088857953
794.946,87.96443907039773
795.066,81.5826208885795
795.185,85.63197153793017
795.304,87.26140876736741
795.423,90.12201482797349
795.542,90.1237464297051
795.661,86.89950400546265
795.78,84.81725292321157
795.899,78.28478539074402
796.018,75.53673344269203
796.137,77.9566468626055
796.256,82.37396287992158
796.375,85.22417933013807
796.494,76.26314036909909
796.613,66.57742608338475
796.732,53.82316113379788
796.851,42.236963149159216
796.97,41.70089357738965
797.089,43.45847500152763
797.208,48.909496334534005
797.327,57.87754528682445
797.446,67.01087416713565
797.565,79.10361200373723
797.684,85.54338359205087
797.803,94.58488678209606
797.922,104.32595707170836
798.041,101.3899710842645
798.16,95.31545695829253
798.279,91.46605105742879
798.398,78.25586468178551
798.517,64.9075550440183
798.636,59.06822732694555
798.755,53.89168576579918
798.874,47.33540334519499
798.993,49.18043521904548
799.112,61.7638862430277
799.231,74.03345642912862
799.35,80.91540631361019
799.469,87.24410944484515
799.588,94.00484720811484
799.707,90.84350704930655
799.826,83.75575996409144
799.945,79.27061028147368
800.064,74.87810129149668
800.183,80.81805983398726
800.302,80.51732573578516
800.421,87.16204618303763
800.54,96.89767572119916
800.659,104.20300222905726
800.778,107.4910127195993
800.897,103.72274615386397
801.016,99.47828911193798
801.135,102.88318271936267
801.254,96.58937502808601
801.373,99.58214742338953
801.492,104.51604535981869
801.611,110.59712944343391
801.729,118.11544296427874
801.848,127.57921103057802
801.967,142.82999208389037
802.086,159.02276447919405
802.205,162.905580164541
802.324,156.93385039534255
802.443,138.49372235774592
802.562,114.05619172274675
802.681,90.60567407476063
802.8,66.87039784387872
802.919,50.8375967015228
803.038,42.056562282702544
803.157,32.79482746857251
803.276,20.474073157194614
803.394,4.85517286467986
803.513,-6.166627866882145
803.632,-8.296511683947116
803.751,-18.030748788718086
803.87,-25.112786921284094
803.989,-23.11813762560401
804.108,-21.76346106908266
804.227,-24.25004731427469
804.346,-30.582827027627403
804.465,-30.622266811137585
804.583,-22.042056688809332
804.702,-24.028080831355517
804.821,-16.991775677142286
804.94,-4.498650502163962
805.059,5.443310873347327
805.178,12.135473543088441
805.297,11.240499263973438
805.416,22.12538982381458
805.535,29.096381515318427
805.653,19.34042231419181
805.772,16.726641895723496
805.891,14.064079319354498
806.01,11.981361414230772
806.129,18.32465957332921
806.248,32.4718666553822
806.367,65.00698990301807
806.485,88.11131436590792
806.604,111.28492619236543
806.723,138.27851683167944
806.842,170.4469992458853
806.961,192.15487559948508
807.08,210.93807662840953
807.198,221.7784205144768
807.317,225.21356959534916
807.436,218.61235503985776
807.555,208.6933915666175
807.674,193.5744280933772
807.793,190.5887979534703
807.912,179.77286478326033
808.03,175.75693161305037
808.149,182.96697246881422
808.268,201.73372328128795
808.387,227.05718405047162
808.506,252.33648897549955
808.624,278.2088674936011
808.743,306.5860079164647
808.862,322.6679102440903
808.981,329.22600304790615
809.1,325.70877117639725
809.219,312.2478163611652
809.337,281.4085065675781
809.456,250.2306686354628
809.575,226.20261425313095
809.694,204.9788888751283
809.812,191.02356176552394
809.931,188.58165456933943
810.05,197.22632745973522
810.169,209.0796583587891
810.288,218.25160397645772
810.406,225.91878768936442
810.525,233.8249324412321
810.644,237.0470945091172
810.763,240.3021570099026
810.882,249.31652686999539
811.0,261.736957336149
811.119,265.83704148195636
811.238,271.6384243290625
811.357,269.0900236263854
811.475,267.769328551414
811.594,265.1092395370487
811.713,271.8526137261466
811.832,278.6713125905693
811.95,291.12810669308715
812.069,295.37364538434963
812.188,303.12567758210554
812.307,303.77467947683124
812.425,312.0496553975308
812.544,313.051904045503
812.663,314.92601416533677
812.782,313.5395182245644
812.9,323.9876543184241
813.019,332.5968293733229
813.138,338.3774329996503
813.257,347.71647818441926
813.375,366.56461427827907
813.494,373.3227070820956
813.613,376.0695444746566
813.731,375.24322169405735
813.85,384.6039119004711
813.969,392.0087579510409
814.088,397.3642533522602
814.206,406.6323028660339
814.325,410.7176683971236
814.444,413.0636399888193
814.562,414.95593192683555
814.681,414.3270117436397
814.8,422.8868361491884
814.918,418.25012375820046
815.037,418.2965282503296
815.156,415.3533223528483
815.274,416.77721602246623
815.393,416.28162917260346
815.512,412.45357479027314
815.631,411.71469789712023
815.749,409.17928420743044
815.868,395.10447657834686
815.987,389.996768516363
816.105,381.8951210604398
816.224,387.11728312832616
816.343,392.7117395685069
816.461,396.8646375671293
816.58,390.98117192938787
816.698,375.7842863782266
816.817,359.3224657621304
816.936,342.95501744040666
817.055,316.1061838372979
817.173,295.9525883294274
817.292,290.87258589515
817.41,283.8332761015652
817.529,275.0467801607943
817.648,260.0386391983783
817.766,256.1889397944038
817.885,255.64919710038595
818.004,253.7051254020392
818.122,256.292655435294
818.241,262.07672226508555
818.359,269.0677155018035
818.478,285.1695312493437
818.597,296.82026474580175
818.715,305.3428597141212
818.834,326.18925600338616
818.953,326.07588125002
819.071,338.684992599207
819.19,365.76093337903274
819.308,459.6154780755588
819.427,601.0403933776961
819.546,770.3841415539027
819.664,906.8021399225232
819.783,991.5798573527684
819.901,953.5932252181182
820.02,833.7914203702009
820.138,672.118808605763
820.257,528.00613474936
820.376,411.96297390056634
820.494,334.3327037260207
820.613,294.90995562280614
820.731,282.45035079892443
820.85,258.8603916546889
820.969,241.3319043719252
821.087,234.9999538856982
821.206,238.27925881072656
821.324,250.53345551064663
821.443,267.0984747213891
821.561,300.3760480446856
821.68,332.74885946322024
821.798,349.3493765094605
821.917,348.01482862063585
822.035,326.1486790002093
822.154,308.97517007242345
822.273,280.73066547364186
822.391,256.3528275415269
822.51,243.54901558343784
822.628,231.74174042188577
822.747,229.6158505417191
822.865,221.114203085795
822.984,226.22467684199222
823.102,234.85116791420694
823.221,228.70882781759062
823.339,237.7249292794159
823.458,248.68994849015905
823.576,234.71903696497156
823.695,233.66241115406987
823.813,229.27504941243222
823.932,226.89721148031845
824.05,221.9358237646549
824.169,225.18482565938092
824.287,239.69010461038425
824.406,240.39624936225346
824.524,229.23139844312712
824.643,226.90377696123022
824.761,227.61078751396528
824.88,219.56714871605104
824.998,221.89667009129693
825.117,229.39415683450818
825.235,232.66653535261133
825.354,228.87917361097425
825.472,236.62514520267035
825.591,237.07154969479916
825.709,243.47206674104035
825.828,235.39899071368848
825.946,225.5778627382847
826.064,213.85976506591132
826.183,205.73820419007473
826.301,200.31707621467098
826.42,206.78685733017625
826.538,207.3207077097507
826.657,213.65455808932495
826.775,213.58840846889925
826.894,208.93957486578972
827.012,205.77126074319972
827.13,205.4107388284019
827.249,211.445887909275
827.367,198.42908893820015
827.486,190.74735490219024
827.604,186.04917064973
827.723,180.75185219813557
827.841,168.9783432703507
827.959,169.90440144213306
828.078,176.20015658361234
828.196,187.35911518829505
828.315,183.01850669341079
828.433,196.40517092579924
828.552,214.51824208459442
828.67,227.97157298364914
828.788,233.8900553978553
828.907,240.4050746085982
829.025,226.74996394921106
829.143,201.87797017294093
829.262,166.3220367953673
829.38,134.60526611992842
829.499,104.44593694157211
829.617,79.27550833329838
829.735,67.32889202263453
829.854,61.94995621442939
829.972,53.038185146151434
830.091,55.75286150020429
830.209,62.29630594233154
830.327,76.24661123035233
830.446,83.8440891039811
830.564,98.01550152612725
830.682,118.58808762294593
830.801,134.79930755044433
830.919,155.1310800819572
831.037,185.4264889771065
831.156,205.16691951727745
831.274,220.77747992757827
831.392,216.5542741041129
831.511,206.87132802090716
831.629,191.17279752211704
831.747,162.1495916986516
831.866,141.0891564379567
831.984,137.6979852465259
832.102,136.05832920661032
832.221,135.14594589396748
832.339,129.21191755967956
832.457,133.66749961500193
832.576,130.74386089110345
832.694,123.56307931006197
832.812,119.5190942658169
832.93,122.64913519559774
833.049,124.06229300849553
833.167,112.2108375672846
833.285,108.8428616692169
833.404,110.81764000868077
833.522,108.55238242395436
833.64,108.54084861582015
833.759,109.66157325579002
833.877,108.44366685190633
833.995,114.91270319462929
834.113,121.59504836116562
834.232,144.26267491298336
834.35,169.47056120506076
834.468,195.04554706423784
834.586,215.39542469830684
834.705,227.43621142328493
834.823,232.8917167629818
834.941,234.07622643168307
835.059,232.1611690008172
835.178,229.50152282536254
835.296,219.85486366289484
835.414,211.3198928121154
835.532,198.45245442886846
835.651,195.80666106726653
835.769,197.00588935068618
835.887,195.90381893280724
836.005,208.2052117183916
836.124,226.29881229618383
836.242,240.227910709474
836.36,259.98817795393313
836.478,269.9631638131109
836.596,294.64637478051384
836.715,307.0914905098214
836.833,312.8231863257093
836.951,327.49687348358833
837.069,337.363634234541
837.188,341.88753784263656
837.306,349.0685843078749
837.424,349.8911892146717
837.542,357.6583828660575
837.66,360.08098777285454
837.779,365.3235060995652
837.897,373.0500071102583
838.015,382.71590206034557
838.133,386.46664549528157
838.251,394.5013716142
838.369,400.77852197554273
838.487,401.1950662762794
838.606,404.2479742133796
838.724,402.59265704225476
838.842,402.77543510922504
838.96,408.30107031905254
839.078,404.8673981695729
839.196,408.79822818459536
839.315,417.8511361216956
839.433,413.1438708986229
839.551,411.79851043745504
839.669,405.28864781178504
839.787,401.500863108193
839.905,399.4914333829561
840.023,391.46728504300063
840.142,391.59551765542597
840.26,392.2501571942584
840.378,378.24938547767965
840.496,370.1854102978976
840.614,364.48940048608085
840.732,362.4392781201517
840.85,362.32768389275077
840.968,350.990115639376
841.087,353.8551447885986
841.205,351.1418189594664
841.323,345.36355806539933
841.441,347.61127119730645
841.559,360.4814951517244
841.677,369.75951131393464
841.795,376.34055777917524
841.913,379.2324267552384
842.031,391.98403599104176
842.149,401.51140280260273
842.267,409.76604234143645
842.385,415.83626629585456
842.504,431.1177456615278
842.622,441.4762813042573
842.74,457.63654854871845
842.858,481.55525735162087
842.976,493.9155245960818
843.094,504.32341088816196
843.212,504.23346168240647
843.33,496.1054172385559
843.448,486.5124377297702
843.566,481.0025751041013
843.684,478.7212839070038
843.802,494.54562041553385
843.92,486.778614932722
844.038,489.2852025235034
844.156,492.77533989783444
844.274,504.3286807353691
844.392,507.2785583694405
844.51,508.728003103079
844.628,505.14281580208535
844.746,510.6312215746849
844.864,503.0598870875443
844.982,498.4695049813563
845.1,491.0808544768997
845.218,486.33462821486745
845.336,458.3511725156055
845.454,427.3893618379884
845.572,390.03707496989506
845.69,355.9220175390311
845.808,326.43726313847014
845.926,302.39579878119923
846.044,289.80801407760805
846.162,287.0912250450126
846.28,274.8428342808155
846.398,271.2585127806876
846.516,266.31055491692365
846.634,246.7322940228567
846.752,216.04234481710125
846.87,186.89265535160544
846.988,160.58106112420484
847.106,139.43223745957468
847.224,116.82800253953314
847.342,102.46013125585513
847.46,102.85762793754495
847.578,90.87036020862594
847.696,88.78116052833765
847.814,85.29377262579365
847.932,81.56974295478375
848.05,80.37860818551417
848.168,79.73512472345894
848.285,76.4672340773254
848.403,88.30524034823165
848.521,89.31817386607051
848.639,106.43597593577562
848.757,121.17202933175685
848.875,127.69741766122542
848.993,139.85743802532605
849.111,149.9507917227599
849.229,156.07444845049667
849.347,171.1080618881901
849.465,183.39622078042916
849.582,193.57702036530875
849.7,200.06864246101082
849.818,208.85463685108505
849.936,216.44842344895147
850.054,222.77467757928528
850.172,234.7329663416536
850.29,247.43497804774483
850.408,258.3179421347885
850.525,258.2918153127412
850.643,260.347939572945
850.761,270.559042188127
850.879,272.71473354789794
850.997,278.18362837087216
851.115,283.5235188648422
851.233,291.0543184497212
851.35,292.6617414112237
851.468,291.5908093943715
851.586,299.0493146069565
851.704,304.4303306420524
851.822,308.6394852052869
851.94,320.11400773388925
852.057,344.95649563045674
852.175,385.26023893827943
852.293,424.41333289545287
852.411,475.44694633314583
852.529,530.4320749223541
852.647,577.5747792691384
852.764,627.6664013648403
852.882,679.568413070932
853.0,720.94748105408
853.118,744.1447308554098
853.236,763.4701191848778
853.353,784.2691005879392
853.471,794.9849651078836
853.589,799.0038599308583
853.707,800.4729712040496
853.824,796.9819093170677
853.942,773.7583798976182
854.06,733.1937249370435
854.178,705.7779877253863
854.296,673.0745881760666
854.413,638.9737860293444
854.531,597.8232003328387
854.649,551.2946925584106
854.767,512.3008168186144
854.884,465.22598869786594
855.002,418.8728055987625
855.12,382.3893194693561
855.238,339.6984740325905
855.355,300.5755939637902
855.473,252.0680818603578
855.591,201.6462840426396
855.708,164.77686717730217
855.826,124.60788321239778
855.944,91.44259970434297
856.062,65.84685499706077
856.179,49.389834017794556
856.297,36.31539697677067
856.415,21.793490262810295
856.532,8.231028788147388
856.65,-0.6451813053418975
856.768,-11.154414338768746
856.886,-23.441259862979855
857.003,-23.50886912295386
857.121,-28.655255680578264
857.239,-28.176758244220668
857.356,-26.444287387415716
857.474,-30.637948947057325
857.592,-36.088825466407386
857.709,-36.86259653696178
857.827,-32.74970359390727
857.945,-23.140292500992366
858.062,-20.226415388875232
858.18,-8.43383353036522
858.298,-5.000015670277778
858.415,-8.02998809531529
858.533,-9.435733447311675
858.651,-8.361400509847606
858.768,-6.469999927247734
858.886,0.9604506556560499
859.003,5.174713555501871
859.121,5.3480544064314275
859.239,3.2875796256245087
859.356,-4.262958065855104
859.474,-7.497323833616701
859.592,-9.279256775349099
859.709,-9.692481474823456
859.827,-4.6832366035122615
859.944,-8.442150964887935
860.062,-11.62391372435011
860.18,-11.589176478789042
860.297,-10.322189810146924
860.415,-0.9088283431298092
860.532,3.969520208662377
860.65,2.9725798765273264
860.768,4.612592010103966
860.885,0.9189159308965591
861.003,5.921107399230941
861.12,9.457365532980425
861.238,18.741755960081072
861.356,25.178095064444385
861.473,28.686175257708967
861.591,30.09024488935294
861.708,42.47285555210087
861.826,48.484208164430555
861.943,59.92514425464013
862.061,62.64075274707732
862.178,59.76069024384334
862.296,49.56807362805498
862.414,36.99700777589333
862.531,30.85428759069321
862.649,26.345197704777462
862.766,22.110274279445413
862.884,22.015068854828296
863.001,27.345819345559615
863.119,31.94191757324313
863.236,35.67296554350887
863.354,33.10024730748523
863.471,38.38277659275032
863.589,40.52832204196952
863.706,42.98382420114531
863.824,45.03672895772377
863.941,52.8420146666832
864.059,62.49145621979844
864.176,71.78072461274058
864.294,78.30202763771746
864.411,88.69259473195831
864.529,96.60610554914274
864.646,93.20013584684662
864.764,91.48074623113047
864.881,88.4531315071892
864.999,90.36144751917851
865.116,92.76327002467426
865.233,101.04474620982363
865.351,118.05868992744041
865.468,132.55661632903985
865.586,150.96449944059606
865.703,175.76199294176263
865.821,195.74303622647898
865.938,212.8626076497234
866.056,216.16399725478607
866.173,211.7337851282469
866.29,206.70530460343923
866.408,194.14522234702994
866.525,189.13492364040417
866.643,183.00947341862673
866.76,181.63207514490114
866.878,186.2157158322144
866.995,189.62273314290428
867.112,191.45832188216548
867.23,195.41165953917562
867.347,195.59097122215974
867.465,191.84560758046865
867.582,183.10110973964316
867.699,170.7566118988177
867.817,174.64414869002678
867.934,174.77237812192857
868.051,174.71619196941475
868.169,179.18468114157633
868.286,184.79862485919242
868.404,190.5770707413107
868.521,200.7555166234289
868.638,211.96166813325277
868.756,235.08037375563066
868.873,254.19042136935076
868.99,271.54722222982423
869.108,294.1403867266614
869.225,313.54567243561974
869.342,341.2427330363528
869.46,374.85321355050587
869.577,406.02819622916127
869.694,429.1451702498081
869.812,456.7461269544377
869.929,481.21115292313664
870.046,509.57574599140275
870.164,527.6667459860756
870.281,537.6486550716576
870.398,544.4366247633002
870.516,549.137148567497
870.633,537.7199234539451
870.75,531.7494515871463
870.867,528.3651269064948
870.985,527.586862831904
871.102,514.383490532205
871.219,492.47708792947583
871.337,469.96029571635677
871.454,456.89198835172255
871.571,430.251386614794
871.688,403.3882740553545
871.806,385.2273259980793
871.923,371.5875900620161
872.04,352.2803216584206
872.157,330.555737237509
872.275,311.5142696997142
872.392,302.21739090650806
872.509,278.29194068473066
872.626,260.71454241100514
872.744,253.83930863944408
872.861,242.64372854753663
872.978,227.1546419621228
873.095,207.577243688397
873.213,192.2820964969222
873.33,169.988680907179
873.447,138.32037354254408
873.564,116.81743414327718
873.681,103.06947309898864
873.799,89.95874149192949
873.916,79.5345899714504
874.033,70.20740814794092
874.15,73.48888433308947
874.267,58.05141689503616
874.385,43.848512161051104
874.502,33.766811941893266
874.619,25.275195995545168
874.736,16.01743082565954
874.853,4.169398776384812
874.97,-2.0833951602454217
875.088,4.8920936124280505
875.205,-2.749005808902795
875.322,0.362057784686292
875.439,3.0551415543905467
875.556,0.7914975328807015
875.673,-0.5735867822895191
875.791,-2.9606189864657395
875.908,0.8854697030256364
876.025,-0.692799364584302
876.142,-5.536368421094242
876.259,-0.12357364732624543
876.376,-9.54348667360874
876.493,-7.41599691320911
876.61,-3.1464261158310203
876.728,7.031332980330982
876.845,18.049583331750668
876.962,18.998492780236422
877.079,16.731931785967134
877.196,16.162171117847166
877.313,1.3352270371871993
877.43,4.778550084269376
877.547,4.58937969247559
877.664,5.240057006922521
877.781,10.179757702243492
877.898,8.59061018606331
878.016,3.568039326044956
878.133,3.682923278449696
878.25,6.021435125415096
878.367,8.07716282063368
878.484,5.5164743141442765
878.601,6.3709131062968565
878.718,6.620353849790039
878.835,-6.147619673527341
878.952,-10.93611553004691
879.069,-1.7443899683536677
879.186,1.7582924192775395
879.303,1.9015664270954418
879.42,-4.911769665914281
879.537,-3.148085959363831
879.654,-6.4833651331579905
879.771,-18.80285752213345
879.888,-19.553012872326576
880.005,-21.45530805342171
880.122,-21.702910496188892
880.239,-20.29582020062812
880.356,-17.234037166739398
