wavelength_nm,intensity
792.446,104.13765823466319
792.565,148.0419006589056
792.684,178.620169057174
792.803,195.87246342946838
792.922,199.7987837757885
793.041,184.22302620003097
793.16,158.59185736886224
793.279,131.42951970652462
793.398,105.99120801821292
793.518,84.95148940349432
793.637,81.27746342946836
793.756,84.22102403552894
793.875,89.09402187102671
793.994,96.69613226063707
794.113,115.26371884072368
794.232,131.6781668926717
794.351,143.22778810479295
794.47,152.9757859402908
794.589,173.01913009613492
794.708,192.20172389122868
794.827,206.57482995183472
794.946,217.38233355933826
795.066,216.7150896920944
795.185,190.095176272181
795.304,165.42995260695733
795.423,136.6380334150382
795.542,127.21811999512477
795.661,119.51653269353747
795.78,119.84467122167604
795.899,121.20657598358079
796.018,111.57540715241203
796.137,102.33298290998779
796.256,106.75809113509595
796.375,94.14683572384057
796.494,90.74423832124313
796.613,85.22822100522582
796.732,80.43255000955477
796.851,76.87584005284488
796.97,67.36239167398944
797.089,59.1014875246163
797.208,61.74317179930185
797.327,67.36959222691326
797.446,84.78504336065157
797.565,103.90817437025953
797.684,122.53995440998695
797.803,147.65891071382887
797.922,157.69212426652103
798.041,153.55823825211382
798.16,152.1291141424686
798.279,141.8489077817411
798.398,128.01025986257216
798.517,110.22615739794858
798.636,100.8420549333249
798.755,99.94280095354952
798.874,102.55004048026761
798.993,99.64472589443167
799.112,102.16711693630151
799.231,103.28517897384245
799.35,105.47250508064765
799.469,100.64684417446587
799.588,104.54585859295942
799.707,110.34184270842266
799.826,111.98717747323644
799.945,100.59095379649176
800.064,97.13325825827516
800.183,95.31971856421437
800.302,93.03691480088955
800.421,84.6129854964393
800.54,86.53710814004106
800.659,93.79716151957359
800.778,99.82604606793718
800.897,105.37008213145236
801.016,120.32623940708876
801.135,128.45555685588536
801.254,134.08617300598067
801.373,129.42847746776434
801.492,122.65389881266496
801.611,120.9615712398166
801.729,129.12552072324524
801.848,139.8305957477994
801.967,148.70277033945308
802.086,155.18013973630156
802.205,152.9830502586911
802.324,136.8266534217733
802.443,117.24081935541841
802.562,100.05585108992929
802.681,86.71330706686437
802.8,68.15774227294328
802.919,50.64341353278134
803.038,36.7420379767443
803.157,22.303192479011386
803.276,8.591339931143196
803.394,-1.1193628341692743
803.513,-6.485173823208824
803.632,-17.402679509759164
803.751,-22.54186054724151
803.87,-25.694524067130203
803.989,-30.127623140049796
804.108,-28.066969553038756
804.227,-20.058670513595438
804.346,-21.038111873704302
804.465,-13.679019633335926
804.583,-17.50094915821234
804.702,-12.06498163686176
804.821,-15.767706395196898
804.94,-18.23951918173929
805.059,-12.185830825823581
805.178,-2.8665820030721307
805.297,-0.3793507392773835
805.416,12.973538147284753
805.535,18.76872890461589
805.653,22.068188598789504
805.772,20.235253367142576
805.891,15.276840677837672
806.01,11.21052536592092
806.129,13.93175458623719
806.248,16.511950669601596
806.367,34.89720085650085
806.485,62.69214092354764
806.604,92.73090429902959
806.723,127.20533762500986
806.842,153.87639763875364
806.961,174.60693248954325
807.08,196.95824656111205
807.198,196.29051301363324
807.317,191.7136885570635
807.436,188.92474288837258
807.555,180.5764898603743
807.674,165.58581258995162
807.793,152.75877168316498
807.912,146.72047536512292
808.03,161.07871584361757
808.149,166.6075190926751
808.268,189.44195004736034
808.387,218.90928143494614
808.506,250.31860416452324
808.624,271.9140740802475
808.743,285.4065136929412
808.862,291.9621567688382
808.981,294.82862235555774
809.1,276.68210092929024
809.219,264.0983500657935
809.337,243.30247799017565
809.456,226.15855396650574
809.575,210.84839617660194
809.694,201.06118210964192
809.812,190.4808944496083
809.931,179.53956782853578
810.05,166.06057886980113
810.169,168.70713103660762
810.288,170.7909126406435
810.406,173.33616610615127
810.525,179.31778320802246
810.644,188.9712617817553
810.763,195.40569273644041
810.882,205.6280024790044
811.0,208.24165421291048
811.119,220.50725399876444
811.238,226.60748581925034
811.357,227.6895358215545
811.475,227.54647759875033
811.594,232.27787825040525
811.713,236.09499318777458
811.832,251.1839695970055
811.95,270.3655866988771
812.069,284.19482284836783
812.188,308.5625871363866
812.307,329.9961522902063
812.425,348.09032350463184
812.544,357.8970488316115
812.663,359.657020911838
812.782,368.2602830353544
812.9,382.84103433636
813.019,395.4191882347683
813.138,426.9038356396701
813.257,456.4897817458707
813.375,479.4497538260972
813.494,493.19154408814205
813.613,498.1229447397973
813.731,489.60326314037025
813.85,484.44029149765316
813.969,481.1128176904339
814.088,477.3282010260717
814.206,475.4743202924454
814.325,469.83602397440336
814.444,464.0652601238936
814.562,453.3031542820418
814.681,439.71767181681327
814.8,440.74690796630335
814.918,423.8679190075684
815.037,415.0434755033789
815.156,413.53678091693854
815.274,405.69935039976224
815.393,394.95109737176347
815.512,384.6591214000417
815.631,372.1429030040775
815.749,372.49594867737716
815.868,357.67063937232183
815.987,363.7518235737599
816.105,372.42348396567434
816.224,367.8838889463333
816.343,364.9061986888972
816.461,355.7120582150109
816.58,338.4235454467523
816.698,327.2449893884506
816.817,322.4621043258198
816.936,326.312985496955
817.055,324.64005714428066
817.173,314.9870422115198
817.292,306.9833779281096
817.41,300.086207151193
817.529,283.5171749024149
817.648,270.85117295666726
817.766,266.465690491439
817.885,254.8706842166868
818.004,246.62632729258405
818.122,238.67547686198787
818.241,235.38176928853449
818.359,238.10191452893392
818.478,237.3372112844848
818.597,245.087659555187
818.715,243.94719873498036
818.834,243.92375103000336
818.953,230.9009908850348
819.071,229.5739429998409
819.19,254.42748831058353
819.308,328.23388767623254
819.427,461.43799923013853
819.546,602.1092128060085
819.664,708.6959584587978
819.783,758.1251330706475
819.901,712.9186533690795
820.02,614.5200041052642
820.138,484.96857117817706
820.257,377.2237430271355
820.376,307.5529053646633
820.494,248.97141438513987
820.613,216.51887323073038
820.731,191.3065509386629
820.85,170.76089531326215
820.969,160.6784431510649
821.087,156.72412951700613
821.206,165.35423146736275
821.324,179.8769741103601
821.443,201.55815831179876
821.561,235.8990827729778
821.68,260.9594877536375
821.798,274.54803126243576
821.917,273.99198602664524
822.035,257.09654685146074
822.154,236.44872672389522
822.273,209.71778971321297
822.391,199.91585703153504
822.51,189.7355693715021
822.628,179.57952413571172
822.747,180.84598972243202
822.865,181.56267175936887
822.984,182.59017630712825
823.102,177.36659860380547
823.221,179.31791267537454
823.339,191.33416181187872
823.458,190.14175293972465
823.576,189.3675258857523
823.695,205.04091787939888
823.813,214.43552199425747
823.932,218.81627329526322
824.05,214.89486009410462
824.169,215.5855681050672
824.287,212.28839732815118
824.406,205.57910533911377
824.524,198.98842806869078
824.643,203.07307547359244
824.761,200.37070989148089
824.88,205.23024907127387
824.998,206.33913890041748
825.117,209.81166509319735
825.235,208.11882332060938
825.354,204.0935140155537
825.472,198.5218843641776
825.591,192.28012484267174
825.709,190.2028674856682
825.828,188.40872701178168
825.946,179.74791987122862
826.064,175.41178805535094
826.183,169.95011511393207
826.301,162.5568404409113
826.42,161.60945321377775
826.538,158.33998806456623
826.657,166.8783151231469
826.775,167.90408806917355
826.894,169.68916837450757
827.012,164.78853439412734
827.13,163.6402813661282
827.249,156.61930106540183
827.367,152.2797060460607
827.486,144.3885958752045
827.604,145.76415237101497
827.723,151.70594263305924
827.841,148.87197531934595
827.959,141.81722878485346
828.078,143.77027445815327
828.196,152.56747597560877
828.315,166.22788095626743
828.433,186.15235520099523
828.552,210.8058337747272
828.67,231.6783599675068
828.788,232.9517519611523
828.907,230.36107469072857
829.025,220.92450997441745
829.143,197.0729432466814
829.262,164.10909998608247
829.38,126.7930258070869
829.499,93.34891106835829
829.617,63.12843066025479
829.735,45.762997388534835
829.854,33.8343245819842
829.972,27.97666174461049
830.091,20.666372818906435
830.209,21.976614698011474
830.327,33.3218168069624
830.446,51.36351231307576
830.564,73.77969579257419
830.682,115.34410774202848
830.801,139.43274254723408
830.919,160.5097189618566
831.037,183.49054312419764
831.156,203.7666053817768
831.274,218.78898798567621
831.392,217.0460026242077
831.511,208.2216319813537
831.629,192.86912281036115
831.747,155.9754880982429
831.866,120.19007849434975
831.984,100.87133555712336
832.102,89.33873980604409
832.221,80.43918733949295
832.339,75.95137225035613
832.457,86.02000182204935
832.576,85.03659617520628
832.694,87.96890832217446
832.812,78.91785468156871
832.93,82.36322499102968
833.049,76.75234953835813
833.167,67.29754727364048
833.285,55.93047717344621
833.404,62.66755510570464
833.522,61.743529287978006
833.64,70.79513107333386
833.759,70.56668248208916
833.877,81.81702317174765
833.995,84.36124641168738
834.113,88.19984789461347
834.232,88.05124574793066
834.35,106.23733603113757
834.468,123.89627944440163
834.586,145.07730077974367
834.705,163.5994476562111
834.823,181.40297981406377
834.941,188.1935249589293
835.059,178.30008741981223
835.178,166.3044853785306
835.296,160.35909978746548
835.414,145.04055402324025
835.532,128.12720306420977
835.651,116.3489170402442
835.769,117.56889941454688
835.887,115.71615451612217
836.005,124.16470831899619
836.124,149.11888982749787
836.242,178.06787653080488
836.36,194.78915760640612
836.478,212.61606638763502
836.596,225.09405741994618
836.715,232.19629087649966
836.833,233.92622996075875
836.951,242.3955629844117
837.069,250.33848908165768
837.188,262.0493805468689
837.306,273.1230425748506
837.424,293.05298165910926
837.542,311.4158211762683
837.66,325.98298969775647
837.779,342.1596820287683
837.897,350.9294479528537
838.015,357.45332643105144
838.133,357.8031789352231
838.251,360.0586591450224
838.369,361.9808060214881
838.487,360.0865026815036
838.606,363.4129785622983
838.724,360.07625097988944
838.842,358.74471820267536
838.96,360.3266053388813
839.078,362.36563533223
839.196,369.1250116459251
839.315,379.76923644446856
839.433,383.36497639452705
839.551,387.9226211064902
839.669,378.7183610565486
839.787,370.16778066028644
839.905,367.4197976666218
840.023,365.09432549546807
840.142,364.2294593849204
840.26,368.2780131877928
840.378,366.5170431811416
840.496,359.77771819613565
840.614,354.58817676091337
840.732,349.9293712564272
840.85,349.19697267834783
840.968,336.14163037732465
841.087,334.01962140963485
841.205,331.0300799744125
841.323,319.44573334438496
841.441,314.78433043730104
841.559,321.6631872704768
841.677,328.88576704737557
841.795,337.40098751691494
841.913,346.0971603674067
842.031,369.1687066506792
842.149,376.7307223921173
842.267,386.9723439398319
842.385,402.61507355660177
842.504,468.2694246505539
842.622,533.0762098291106
842.74,568.070700413306
842.858,581.8113379615818
842.976,567.8946592704748
843.094,519.0266335512462
843.212,474.6940650930219
843.33,436.929335881702
843.448,450.88956282051595
843.566,464.21587464658523
843.684,470.1163765014055
843.802,480.5779173172645
843.92,479.05157934524453
844.038,479.5650682130513
844.156,490.43959604189706
844.274,504.104600061219
844.392,505.9661408770779
844.51,512.374867840123
844.628,519.0476640672375
844.746,517.9940533679448
844.864,508.22442535263485
844.982,506.1794726620001
845.1,503.66612170296713
845.218,493.4679222590855
845.336,467.0731860186674
845.454,438.8351597349591
845.572,405.15644081055814
845.69,371.0768560852913
845.808,336.93839690115
845.926,311.528942046013
846.044,290.9965434679324
846.162,274.17583320153994
846.28,249.93261211263675
846.398,225.53268106702365
846.516,207.5119708006313
846.634,189.41939906237747
846.752,167.88093987823623
846.87,150.2117447633592
846.988,143.51830722423986
847.106,131.52616838641933
847.224,117.20848842305779
847.342,109.39037555926342
847.46,107.74282546603175
847.578,95.92562373780152
847.696,82.93552021356757
847.814,75.53865346107202
847.932,77.79782350407709
848.05,72.25257840245163
848.168,77.60406273701948
848.285,85.27432496886675
848.403,91.40978064280546
848.521,90.12017342633433
848.639,90.60026317956012
848.757,103.31844817088106
848.875,118.8028669284358
848.993,135.75828135698623
849.111,156.0478949197357
849.229,173.04919679417338
849.347,187.29725191536437
849.465,199.62669231794058
849.582,218.89639246077644
849.7,241.01198004949958
849.818,266.8202083308633
849.936,280.963501547292
850.054,298.3899116468376
850.172,311.2163217463833
850.29,321.612428815626
850.408,324.3730380493709
850.525,334.4886256380942
850.643,340.0024816250858
850.761,343.51114280688273
850.879,337.7202368891127
850.997,342.5379889800009
851.115,335.00855492370295
851.233,324.94578753407177
851.35,310.7098599712804
851.468,302.24882418338086
851.586,308.3280481357409
851.704,306.25489113572
851.822,323.78086833483314
851.94,348.6488368759374
852.057,374.4752469754831
852.175,405.4497090230809
852.293,450.11594596245357
852.411,508.8133517329953
852.529,578.8008007935803
852.647,636.5735312394468
852.764,694.933274672326
852.882,734.5631479753353
853.0,762.8432377285608
853.118,773.7995179579768
853.236,786.0103436419382
853.353,806.763160667891
853.471,821.7791811570471
853.589,833.435894286896
853.707,832.7514818756192
853.824,820.8185846158578
853.942,791.169670040079
854.06,751.3778983214431
854.178,715.2354772521579
854.296,683.596086485903
854.413,649.884834247787
854.531,611.4670885031773
854.649,570.2909012001261
854.767,526.397830780192
854.884,476.18614564164284
855.002,423.3528154814487
855.12,368.7523857541553
855.238,317.21342788833374
855.355,274.79741374545597
855.473,233.26624808742667
855.591,197.38962788394286
855.708,161.13032369777505
855.826,136.46495890554638
855.944,105.12987564434897
856.062,74.79008515497921
856.179,50.294436741067415
856.297,33.505354989399386
856.415,20.93643052735872
856.532,7.751920965425872
856.65,-13.943123575089075
856.768,-19.41971883775146
856.886,-31.67922757323903
857.003,-34.660418967518126
857.121,-38.41191200405243
857.239,-39.81945005443454
857.356,-34.998655853166795
857.474,-38.87846306624861
857.592,-42.48770223624573
857.709,-36.30933417119913
857.827,-33.296928447077086
857.945,-24.962778553781014
858.062,-22.926852487948103
858.18,-18.17351067901832
858.298,-12.128634128547697
858.415,-7.155119162486516
858.533,10.123041998405341
858.651,19.614064317384532
858.768,27.252324655312343
858.886,33.37485548838075
859.003,29.553317416796
859.121,26.81693790125629
859.239,20.71868480179323
859.356,18.557584330833944
859.474,21.860401975524
859.592,20.46592570014309
859.709,16.370156700013958
859.827,11.85339979133148
859.944,5.1966632126742685
860.062,5.019098478096274
860.18,-2.9589994607079673
860.297,-4.105758110095761
860.415,-6.682072140909604
860.532,-4.32017536833201
860.65,-9.497374993783303
860.768,-7.601687409071273
860.885,1.7330671072650734
861.003,6.873276067887643
861.12,12.185010051878788
861.238,23.35559207290315
861.356,29.378475165794242
861.473,42.403878044021496
861.591,48.92821437613625
861.708,62.84924685528688
861.826,70.9928650266235
861.943,64.26514582183208
862.061,59.63612791574211
862.178,55.495421697963806
862.296,45.06120898667899
862.414,44.70232095071893
862.531,44.138238109564014
862.649,45.871124965378726
862.766,47.2611546783363
862.884,45.953348893458426
863.001,50.783205446242974
863.119,43.42102200412448
863.236,41.90345974186926
863.354,47.888492473240284
863.471,49.41904301463404
863.589,55.76367582577288
863.706,62.48499527810345
863.824,66.2465720617227
863.941,72.68999946243459
864.059,68.20199292884945
864.176,81.36853184980964
864.294,88.14113137683037
864.411,99.00204259216285
864.529,106.48633043087213
864.646,108.73512043408371
864.764,106.89126974465472
864.881,99.24828485609159
864.999,94.90833027055872
865.116,97.39781291446306
865.233,105.18080205187397
865.351,120.7793756048693
865.468,125.69483227474782
865.586,145.35574349008078
865.703,168.78635167511084
865.821,185.0680421112231
865.938,199.7324165300193
866.056,210.10674765877235
866.173,212.6464467528934
866.29,208.18874324961183
866.408,192.14662416191464
866.525,187.42658299629528
866.643,187.96714789128202
866.76,190.0583621369182
866.878,190.46905690203494
866.995,191.54555253295266
867.112,185.7198836617058
867.23,191.64832734457136
867.347,184.53434678501247
867.465,184.39006319515062
867.582,189.09339865290772
867.699,196.4781193920502
867.817,198.55634662469916
867.934,199.99301541578973
868.051,205.83834221553823
868.169,216.2421105737283
868.286,210.19739408343358
868.404,212.62627066673187
868.521,221.75038534526826
868.638,236.6753658246704
868.756,248.74147184519796
868.873,258.7807380388856
868.99,283.77931159188023
869.108,304.33286349985326
869.225,318.83706475847544
869.342,346.9810928569242
869.46,383.49135472160674
869.577,422.8440408287137
869.694,456.0997572388509
869.812,482.99962949314386
869.929,515.4345666825018
870.046,539.8071662095222
870.164,544.6429691997462
870.281,543.63548214668
870.398,543.1180383836572
870.516,533.5174777375179
870.633,516.9775231519845
870.75,502.09211402099686
870.867,491.43787372117805
870.985,486.6182654559913
871.102,469.81251000465727
871.219,452.259568406137
871.337,434.718748019738
871.454,412.64026529567684
871.571,388.1964146062476
871.688,362.1551613194159
871.806,343.2429123615885
871.923,329.1479794210769
872.04,307.071228298747
872.157,286.72434730628703
872.275,264.060583196944
872.392,243.49725198803375
872.509,222.4300246752273
872.626,200.05890125852477
872.744,189.90769126173564
872.861,173.5841868926522
872.978,157.62778209066823
873.095,142.87916949647632
873.213,128.68207205379952
873.33,113.91960664575466
873.447,98.7277040082724
873.564,80.70203513702384
873.681,71.14389873330786
873.799,57.2437709876006
873.916,47.107279605529726
874.033,35.66689211956289
874.15,30.10702411411566
874.267,19.654298080828056
874.385,9.969012859387206
874.502,-1.3019463489644252
874.619,-3.158208849648317
874.736,-4.10893059281088
874.853,-4.766751842125409
874.97,-6.708953610030809
875.088,-7.283022744438207
875.205,-13.86292344085043
875.322,-14.47782242630504
875.439,-17.793983761831864
875.556,-15.55091299120006
875.673,-11.154197019186775
875.791,-5.6419889722805845
875.908,-6.055714370965495
876.025,-13.666762104967413
876.142,-16.696119691815014
876.259,-14.257676563147847
876.376,-13.736400738651733
876.493,6.028933911715494
876.61,27.84475192767737
876.728,39.135549770650286
876.845,48.329233404808946
876.962,39.39450668409226
877.079,32.47010218263005
877.196,17.331283256585362
877.313,4.817662677055811
877.43,8.268272648162547
877.547,0.2780638002676561
877.664,-6.002349061964905
877.781,-5.130655928313859
877.898,-1.8900166926117112
878.016,5.606506117425643
878.133,4.921122088767891
878.25,5.568914030890691
878.367,6.826308768002466
878.484,-1.8807227077862323
878.601,-3.3968025733389453
878.718,-3.341464112387912
878.835,-1.1156143766151398
878.952,-0.06839433667699835
879.069,-6.7445880756872105
879.186,-10.109183256560593
879.303,-9.3928504583156
879.42,-10.186056090316187
879.537,-9.868840892564934
879.654,-4.583771882696412
879.771,-8.042633395341593
879.888,-12.28950249493132
880.005,-16.643430554866583
880.122,-22.83165676032162
880.239,-30.85418111129647
880.356,-40.71100360779113
