wavelength_nm,intensity
792.446,0.17719793804823938
792.565,0.22532432925748436
792.684,0.25884322461197473
792.803,0.2777546241117104
792.922,0.2820585277566913
793.041,0.26498489293051875
793.16,0.23688884593807782
793.279,0.2071143818700345
793.398,0.17922973855505492
793.518,0.15616668876592385
793.637,0.15213934194075082
793.756,0.15536597657679618
793.875,0.16070759704998028
793.994,0.16904078123502925
794.113,0.18939396093302047
794.232,0.20738694076395559
794.351,0.22004725689928706
794.47,0.2307326925527446
794.589,0.25270354932473305
794.708,0.27373087976970534
794.827,0.28948620743213527
794.946,0.30133303857852234
795.066,0.30060162772586135
795.185,0.27142175132978
795.304,0.24438454176115226
795.423,0.2128237838438226
795.542,0.20249798357096221
795.661,0.19405575605620884
795.78,0.19441545075321381
795.899,0.19590832610516323
796.018,0.1853509545761836
796.137,0.17521971212096446
796.256,0.18007037068664355
796.375,0.16624632594634176
796.494,0.16251651022278096
796.613,0.15647003287550212
796.732,0.15121317554908908
796.851,0.1473144266960643
796.97,0.13688609646761815
797.089,0.1278307641607046
797.208,0.13072649185886956
797.327,0.13689398947767367
797.446,0.1559842360704491
797.565,0.17694638535937207
797.684,0.19736993182333312
797.803,0.224904508235455
797.922,0.23590258800772185
798.041,0.23137115768212005
798.16,0.2298045986848653
798.279,0.21853577349372713
798.398,0.20336630132451405
798.517,0.18387195122851552
798.636,0.17358540575083412
798.755,0.17259967301892748
798.874,0.17545764351359106
798.993,0.17227293291107623
799.112,0.17503789527828234
799.231,0.17626347822981023
799.35,0.17866115339981103
799.469,0.17337142211667134
799.588,0.1776453938987535
799.707,0.18399876167328394
799.826,0.18580232370258518
799.945,0.17331015691662022
800.064,0.16951994442310525
800.183,0.16753200166471544
800.302,0.1650296670177328
800.421,0.15579563188036435
800.54,0.15790479204274113
800.659,0.16586302454718033
800.778,0.17247169014095695
800.897,0.17854888072068936
801.016,0.19494333001055641
801.135,0.203854421290175
801.254,0.2100265181224154
801.373,0.20492090496914114
801.492,0.1974948339420486
801.611,0.19563975993717017
801.729,0.20458881371779192
801.848,0.21632336600952073
801.967,0.22604875293565707
802.086,0.23314903291742473
802.205,0.230740655460425
802.324,0.2130305429115753
802.443,0.19156119370088753
802.562,0.17272359487224404
802.681,0.15809793552990142
802.8,0.13775793371978823
802.919,0.11855930073640858
803.038,0.10332106858809431
803.157,0.08749367950985695
803.276,0.07246319626986346
803.394,0.061818642249678944
803.513,0.055936816153738994
803.632,0.043969404334557725
803.751,0.03833600256178414
803.87,0.03488015616673279
803.989,0.03002073829565103
804.108,0.032279559202226284
804.227,0.041057994068922896
804.346,0.039984362559520356
804.465,0.048051158216363965
804.583,0.04386168436754968
804.702,0.04982041375422995
804.821,0.045761608262544745
804.94,0.043052088120694665
805.059,0.04968794283515346
805.178,0.059903397876746076
805.297,0.06262981924788802
805.416,0.07726681829045509
805.535,0.0836193164118102
805.653,0.08723607596061535
805.772,0.08522687244977785
805.891,0.07979162301405114
806.01,0.07533426147731292
806.129,0.07831718373711385
806.248,0.08114551009575276
806.367,0.10129881861716329
806.485,0.13176672070230655
806.604,0.1646942283376995
806.723,0.20248397195589354
806.842,0.23171991357136565
806.961,0.25444404625461403
807.08,0.27894482398481035
807.198,0.2782128763607294
807.317,0.2731959114359163
807.436,0.2701387606253915
807.555,0.26098767934133393
807.674,0.24455539036486962
807.793,0.23049480863857746
807.912,0.22387582617143037
808.03,0.23961485867009616
808.149,0.24567535153800552
808.268,0.2707057061571956
808.387,0.30300682878101654
808.506,0.33743669864858983
808.624,0.3611089447943917
808.743,0.3758989147679783
808.862,0.3830849957906312
808.981,0.386227121393922
809.1,0.36633549951354377
809.219,0.3525416043567987
809.337,0.3297458511496787
809.456,0.3109532436733421
809.575,0.2941707506251229
809.694,0.2834423274243832
809.812,0.271844562950671
809.931,0.2598510394040009
810.05,0.24507581359632435
810.169,0.24797687731824553
810.288,0.2502610503988653
810.406,0.2530510738053522
810.525,0.2596079263738778
810.644,0.2701897531112639
810.763,0.2772429653804059
810.882,0.28844832619676897
811.0,0.2913133255427372
811.119,0.3047584739182868
811.238,0.3114453480527482
811.357,0.31263145579185136
811.475,0.31247464005796755
811.594,0.3176610463402791
811.713,0.32184524259610725
811.832,0.33838528386594013
811.95,0.3594115436918218
812.069,0.3745706989876646
812.188,0.40128184333876993
812.307,0.42477661479238227
812.425,0.44461085208676443
812.544,0.4553606628910897
812.663,0.45728988658732994
812.782,0.46672050048179525
812.9,0.48270344204940646
813.019,0.49649120199650976
813.138,0.531003640303765
813.257,0.5634347844935219
813.375,0.5886027531788486
813.494,0.6036660531596585
813.613,0.6090716928852636
813.731,0.5997326972212402
813.85,0.5940732169669485
813.969,0.5904257492658243
814.088,0.5862771765514583
814.206,0.5842450132680186
814.325,0.578064497687458
814.444,0.5717387755405602
814.562,0.5599417079365815
814.681,0.5450497474383197
814.8,0.5461779623633928
814.918,0.5276757680197303
815.037,0.5180027023468785
815.156,0.5163511131359952
815.274,0.5077599787417337
815.393,0.4959780961381565
815.512,0.4846963694852959
815.631,0.47097650120550694
815.749,0.47136349829849333
815.868,0.4551124802643184
815.987,0.4617784750232279
816.105,0.471284064857174
816.224,0.46630790962093854
816.343,0.4630438631799459
816.461,0.45296554780888554
816.58,0.4340144468908608
816.698,0.4217608802123193
816.817,0.4165180384065369
816.936,0.42073924810084284
817.055,0.41890543888514414
817.173,0.40832412037579174
817.292,0.3995507659767149
817.41,0.39199031348468927
817.529,0.37382788352500534
817.648,0.3599438274283779
817.766,0.35513660532160674
817.885,0.34242653956850194
818.004,0.3333893457874533
818.122,0.3246738842024065
818.241,0.32106342993976
818.359,0.3240451639763128
818.478,0.3232069213494222
818.597,0.33170270865668416
818.715,0.33045257289390934
818.834,0.3304268702884122
818.953,0.31615174754959324
819.071,0.3146970811631628
819.19,0.34194072274575943
819.308,0.4228448780958056
819.427,0.5688588582797218
819.546,0.7230580309021245
819.664,0.8398949271965478
819.783,0.8940775679430475
819.901,0.8445237069223377
820.02,0.7366623334547742
820.138,0.594652299833864
820.257,0.4765459514708933
820.376,0.4001750632815432
820.494,0.3359599533780714
820.613,0.3003865416735831
820.731,0.27274962052603535
820.85,0.250228146388664
820.969,0.2391760928668732
821.087,0.23484150389759212
821.206,0.24430153873033517
821.324,0.2602208931087665
821.443,0.28398709644455145
821.561,0.32163049202204275
821.68,0.3491008863932115
821.798,0.36399620230708263
821.917,0.3633866837487367
822.035,0.3448664572170985
822.154,0.3222329937017674
822.273,0.29293141688523094
822.391,0.28218685962156564
822.51,0.2710275620344408
822.628,0.25989483819801823
822.747,0.2612830962549638
822.865,0.26206869960848433
822.984,0.26319501640850823
823.102,0.2574691017774613
823.221,0.25960806829174476
823.339,0.2727798866600726
823.458,0.2714728071457937
823.576,0.27062412483112785
823.695,0.28780478330538917
823.813,0.2981028403477769
823.932,0.3029048763074317
824.05,0.29860635171410327
824.169,0.2993634831918711
824.287,0.2957492326791249
824.406,0.2883947267550419
824.524,0.2811702423968944
824.643,0.28564769897297193
824.761,0.2826854544149543
824.88,0.28801232195097703
824.998,0.2892278506283572
825.117,0.29303431999920315
825.235,0.29117868234542743
825.354,0.2867662702490885
825.472,0.2806588324829583
825.591,0.273816820322417
825.709,0.27153979890750624
825.828,0.26957312093829644
825.946,0.2600794280826846
826.064,0.25532630253984284
826.183,0.24933939571439823
826.301,0.24123513039550198
826.42,0.2401966355758193
826.538,0.2366127550638744
826.657,0.24597218926895797
826.775,0.24709660794393046
826.894,0.24905335445339727
827.012,0.24368144014420356
827.13,0.24242276281870276
827.249,0.23472659438559054
827.367,0.22996967259264822
827.486,0.22131969632183157
827.604,0.22282753625693635
827.723,0.22934073194930818
827.841,0.22623422988747846
827.959,0.21850104801588832
828.078,0.22064191265522098
828.196,0.2302851165553036
828.315,0.2452592046587551
828.433,0.26709976013115355
828.552,0.29412409511553383
828.67,0.31700387405289354
828.788,0.3183997246100385
828.907,0.31555990911775555
829.025,0.30521585623967235
829.143,0.2790705507313689
829.262,0.24293666642036563
829.38,0.20203200925812476
829.499,0.16537166709779189
829.617,0.13224496720856566
829.735,0.11320954855637254
829.854,0.10013372848987825
829.972,0.09371275052243602
830.091,0.08569945145918234
830.209,0.08713569565269852
830.327,0.09957193426871526
830.446,0.11934864941198473
830.564,0.14392053486050516
830.682,0.18948208061119853
830.801,0.2158872523740948
830.919,0.23899114294203816
831.037,0.26418196899617385
831.156,0.28640792372196244
831.274,0.30287496704557115
831.392,0.30096436363354867
831.511,0.29129137782890424
831.629,0.2744624605851633
831.747,0.234020867717455
831.866,0.1947940748818478
831.984,0.1736175022107197
832.102,0.16097584882762764
832.221,0.15122045117257218
832.339,0.14630105539829746
832.457,0.15733795704953105
832.576,0.1562599800189738
832.694,0.1594742844629263
832.812,0.14955281618761604
832.93,0.15332951816943363
833.049,0.14717906044253937
833.167,0.1368150161617842
833.285,0.12435480657067655
833.404,0.13173977053479705
833.522,0.13072688372623661
833.64,0.14064895285985185
833.759,0.14039853500348148
833.877,0.15273078964156236
833.995,0.15551968374855607
834.113,0.1597274328512187
834.232,0.15956454004972848
834.35,0.17949953601387686
834.468,0.19885669086093105
834.586,0.222074632060007
834.705,0.2423780022445649
834.823,0.26189365053330715
834.941,0.2693372235030434
835.059,0.2584923616145059
835.178,0.2453431759150763
835.296,0.23882603914089945
835.414,0.22203435147021644
835.532,0.20349449062833783
835.651,0.19058351962270315
835.769,0.19192082430608048
835.887,0.1898899060879521
836.005,0.19915093379321458
836.124,0.22650488947658454
836.242,0.2582378196506695
836.36,0.2765671397830625
836.478,0.29610841275998145
836.596,0.3097863774569619
836.715,0.3175716129357262
836.833,0.31946791544637476
836.951,0.32875172065223884
837.069,0.3374584958428548
837.188,0.35029559114261477
837.306,0.36243417642391634
837.424,0.38428072227425175
837.542,0.4044094649541941
837.66,0.4203775175241897
837.779,0.43810987732830725
837.897,0.4477230072303733
838.015,0.4548742689423839
838.133,0.4552577657880556
838.251,0.4577301492514261
838.369,0.45983714364264106
838.487,0.4577606704233074
838.606,0.46140704423020046
838.724,0.45774943284408487
838.842,0.4562898502660525
838.96,0.45802386308491116
839.078,0.4602589809170117
839.196,0.46766838763584323
839.315,0.4793362379047046
839.433,0.483277770156897
839.551,0.48827371087445215
839.669,0.4781843027558753
839.787,0.4688114368437331
839.905,0.4657991879746709
840.023,0.4632500816178473
840.142,0.4623020437408323
840.26,0.46673993569364114
840.378,0.46480961810316956
840.496,0.45742219099349357
840.614,0.4517335858037093
840.732,0.44662675594179857
840.85,0.4458239246311214
840.968,0.4315130864009937
841.087,0.4291870097375645
841.205,0.4259099724240061
841.323,0.41321159142398767
841.441,0.4081019143745014
841.559,0.4156422917217941
841.677,0.4235594468915432
841.795,0.4328935524112353
841.913,0.442426011998669
842.031,0.4677162846675781
842.149,0.4760055184137449
842.267,0.4872320481978048
842.385,0.5043790955797549
842.504,0.576347242867316
842.622,0.647386316184626
842.74,0.685746129519961
842.858,0.7008081659337271
842.976,0.6855531589904401
843.094,0.6319856312635881
843.212,0.5833897230979331
843.33,0.5419932649977557
843.448,0.5572960081025137
843.566,0.5719038742426585
843.684,0.5783718109366113
843.802,0.5898394090126804
843.92,0.5881662873665043
844.038,0.5887291570294146
844.156,0.6006494579299462
844.274,0.6156285873488074
844.392,0.6176691473632662
844.51,0.62469418375944
844.628,0.6320086842257631
844.746,0.6308537507182803
844.864,0.6201446047708264
844.982,0.6179029946721281
845.1,0.6151479417473618
845.218,0.6039690098499937
845.336,0.5750359652959713
845.454,0.5440823666260557
845.572,0.5071648590485429
845.69,0.4698079355219187
845.808,0.4323864757435889
845.926,0.4045334643431064
846.044,0.3820265221463944
846.162,0.3635882109946963
846.28,0.33701358681549537
846.398,0.3102671823192551
846.516,0.2905134705077975
846.634,0.2706809865067583
846.752,0.2470712336559045
846.87,0.2277028412296292
846.988,0.22036571443378145
847.106,0.20722032498444987
847.224,0.19152575359275603
847.342,0.18295579457683092
847.46,0.18114980417714427
847.578,0.168196175052289
847.696,0.15395684943051996
847.814,0.14584864659186453
847.932,0.14832507472942952
848.05,0.1422465588417572
848.168,0.1481126805287436
848.285,0.15652057052899448
848.403,0.16324605589684846
848.521,0.16183243074403442
848.639,0.16235868939248194
848.757,0.17629994683292213
848.875,0.19327345904099003
848.993,0.21185942847916728
849.111,0.23410023770142396
849.229,0.2527365074534302
849.347,0.268354758375685
849.465,0.2818698867423646
849.582,0.3029927003100779
849.7,0.3272350823977259
849.818,0.3555252161548361
849.936,0.371028630511556
850.054,0.39013088996337575
850.172,0.4041907802194503
850.29,0.4155866519676281
850.408,0.41861274130713355
850.525,0.4297011167971858
850.643,0.43574522496644263
850.761,0.4395913043276164
850.879,0.43324350310691606
850.997,0.4385245650060098
851.115,0.4302710462349508
851.233,0.41924057051551056
851.35,0.4036356134251893
851.468,0.39436090337714536
851.586,0.4010247493752793
851.704,0.3987522226372687
851.822,0.417963624279473
851.94,0.4452230761343477
852.057,0.4735331402044848
852.175,0.5074863300487421
852.293,0.5564479946645999
852.411,0.6207901665618898
852.529,0.6975081137862105
852.647,0.7608366869067158
852.764,0.8248087244192246
852.882,0.8682496923266979
853.0,0.8992493995929092
853.118,0.9112593147948131
853.236,0.9246444215955569
853.353,0.9473929792687308
853.471,0.9638530486507304
853.589,0.9766307554354232
853.707,0.9758805249876392
853.824,0.9628000742140278
853.942,0.9302999060522481
854.06,0.8866814704091672
854.178,0.8470633333092945
854.296,0.8123812704023583
854.413,0.775428100872908
854.531,0.7333158274571279
854.649,0.6881798408364459
854.767,0.6400656960120659
854.884,0.5850252928796584
855.002,0.5271111284213117
855.12,0.4672599273492786
855.238,0.41076461136592535
855.355,0.36426956720933035
855.473,0.31874446495336617
855.591,0.27941769004869343
855.708,0.2396714295079358
855.826,0.2126340652405117
855.944,0.1782855742443441
856.062,0.14502809055543986
856.179,0.11817676381802418
856.297,0.09977312280727249
856.415,0.08599547986574176
856.532,0.07154305271876404
856.65,0.047761656133674626
856.768,0.04175839194888929
856.886,0.02831992038306516
857.003,0.025052036110644847
857.121,0.020939772431194204
857.239,0.019396875364436402
857.356,0.02468127192519711
857.474,0.020428354452007205
857.592,0.0164720247974702
857.709,0.023244549321636818
857.827,0.026546649719114936
857.945,0.035682271609262496
858.062,0.03791398701777781
858.18,0.04312444447738543
858.298,0.04975063997959743
858.415,0.055202444035998374
858.533,0.07414219786138994
858.651,0.0845459453782052
858.768,0.09291875595147675
858.886,0.09963007353249066
859.003,0.09544102878194147
859.121,0.0924414992651968
859.239,0.08575679413985118
859.356,0.08338786665209566
859.474,0.08700830707617146
859.592,0.08547972789895883
859.709,0.08099008019479817
859.827,0.07603895934675262
859.944,0.0687420629405763
860.062,0.06854742229973136
860.18,0.05980209288945651
860.297,0.0585450536527984
860.415,0.055720982672898024
860.532,0.05831001648367523
860.65,0.05263493998115373
860.768,0.05471293056417731
860.885,0.06494538243874627
861.003,0.07057991098716722
861.12,0.07640245964300843
861.238,0.0886472854433036
861.356,0.09524937243834018
861.473,0.1095273920547191
861.591,0.11667915565118353
861.708,0.13193893507419152
861.826,0.14086570233703022
861.943,0.13349099710314694
862.061,0.12841681943005545
862.178,0.12387791302110858
862.296,0.11244027111736185
862.414,0.11204686981796044
862.531,0.11142854070011524
862.649,0.11332807446130475
862.766,0.11485177946256295
862.884,0.1134182056356748
863.001,0.11871253604907232
863.119,0.11064235191821076
863.236,0.10897884991738009
863.354,0.11553944658698698
863.471,0.11721718591360761
863.589,0.12417196440169466
863.706,0.13153965443673687
863.824,0.13566297158916119
863.941,0.14272604546750245
864.059,0.1378064398380997
864.176,0.15223916815758431
864.294,0.15966306972935984
864.411,0.17156844454455883
864.529,0.17977247551194964
864.646,0.1822375253901874
864.764,0.18021635671237646
864.881,0.17183836724158597
864.999,0.1670810513039721
865.116,0.16980994056418197
865.233,0.1783413981027254
865.351,0.19544004305515766
865.468,0.2008282055106393
865.586,0.2223798518307426
865.703,0.2480637163850403
865.821,0.26591117166975997
865.938,0.28198577815763193
866.056,0.29335777983373723
866.173,0.296141714720402
866.29,0.29125532627937756
866.408,0.27367048125279514
866.525,0.2684965268666716
866.643,0.2690890763829286
866.76,0.2713813968816024
866.878,0.2718315870190977
866.995,0.273011606238379
867.112,0.2666256990077297
867.23,0.2731242646175539
867.347,0.2653261523495866
867.465,0.265167993408506
867.582,0.270323635545343
867.699,0.27841852432235
867.817,0.2806966088831473
867.934,0.28227143811286115
868.051,0.28867889372027755
868.169,0.3000831635222353
868.286,0.29345714347274077
868.404,0.29611959835619506
868.521,0.306121153746086
868.638,0.3224814280540066
868.756,0.335707897904116
868.873,0.3467126123830151
868.99,0.3741152291702302
869.108,0.39664535895368935
869.225,0.4125443888744207
869.342,0.44339494981524763
869.46,0.4834163019359137
869.577,0.5265534263264144
869.694,0.5630072524153084
869.812,0.5924940105075966
869.929,0.6280481253227155
870.046,0.6547645699042983
870.164,0.6600654186074716
870.281,0.6589610443288862
870.398,0.6583938394394957
870.516,0.6478700195995009
870.633,0.6297394636209972
870.75,0.6134225661279198
870.867,0.601743737194904
870.985,0.5964606406183961
871.102,0.5780387224446935
871.219,0.5587977633118473
871.337,0.5395700910543524
871.454,0.5153683821029181
871.571,0.48857383433296786
871.688,0.46002826620424675
871.806,0.43929727890702663
871.923,0.4238468754993465
872.04,0.399647064672962
872.157,0.37734348077168545
872.275,0.35250020555329725
872.392,0.3299593560207509
872.509,0.30686615209860824
872.626,0.2823436600136966
872.744,0.27121623640775105
872.861,0.25332294606051675
872.978,0.2358320582239159
873.095,0.21966511260980026
873.213,0.2041027198241599
873.33,0.1879205892096428
873.447,0.1712677235826863
873.564,0.1515085763111459
873.681,0.14103126053487902
873.799,0.12579439619534064
873.916,0.11468310665232101
874.033,0.10214252894653245
874.15,0.09604798391108113
874.267,0.08459004831068706
874.385,0.07397335616881773
874.502,0.061618500186493314
874.619,0.059583726088087804
874.736,0.05854157608125128
874.853,0.05782049399345777
874.97,0.055691516087716914
875.088,0.05506224032259431
875.205,0.04784956889158323
875.322,0.04717553678228947
875.439,0.043540469441771756
875.556,0.04599925008475221
875.673,0.05081878599338709
875.791,0.05686108774474759
875.908,0.05640757552608973
876.025,0.048064594517116435
876.142,0.044743912043460524
876.259,0.04741685346032308
876.376,0.04798825892987218
876.493,0.06965437079609081
876.61,0.09356815530558385
876.728,0.10594475774879958
876.845,0.11602257234712737
876.962,0.10622861782779199
877.079,0.09863831261973718
877.196,0.08204363561698691
877.313,0.06832661497840817
877.43,0.07210906050554722
877.547,0.0633504555137656
877.664,0.056466072828312765
877.781,0.057421594264239845
877.898,0.06097387675481106
878.016,0.0691913192966661
878.133,0.06844002379376185
878.25,0.06915011208380792
878.367,0.07052842697278715
