wavelength_nm,intensity
792.446,93.0338983334107
792.565,126.85753469704709
792.684,149.26298924250165
792.803,160.25026196977444
792.922,159.81935287886532
793.041,136.76480742432
793.16,110.51545677496944
793.279,84.47216673167942
793.398,62.247058506571165
793.518,53.80636586587843
793.637,56.57433123384375
793.756,57.60550006501256
793.875,73.17779443730691
793.994,90.49727495678746
794.113,109.26697192648442
794.232,127.33796759748006
794.351,135.22541348492598
794.47,138.07303253254503
794.589,127.59164725115981
794.708,107.04965590916851
794.827,87.7137251732378
794.946,66.29547381952547
795.066,50.49141023697494
795.185,39.74696867990258
795.304,36.35001576150435
795.423,36.48106690407195
795.542,42.31371923942625
795.661,54.76789836216333
795.78,66.24838646818343
795.899,71.25348036334832
796.018,67.63779503773387
796.137,61.49310538311498
796.256,63.932831312911695
796.375,57.6175788877301
796.494,54.186309146531315
796.613,51.60092685122001
796.732,50.167059707424315
796.851,50.77042200085822
796.97,48.273351393859215
797.089,50.327795938375274
797.208,56.4108119114627
797.327,70.35356814429024
797.446,71.77164905244237
797.565,78.90401567488017
797.684,85.467551128487
797.803,88.86138961239678
797.922,97.02752246860086
798.041,97.08802761917721
798.16,101.1970176182384
798.279,104.74756605885801
798.398,95.06348246484568
798.517,86.13957203100665
798.636,72.54639752790365
798.755,58.897811769389364
798.874,54.247494409143314
798.993,52.100207351927466
799.112,62.02391596570719
799.231,65.36061159247382
799.35,68.37263189456516
799.469,67.91279072479513
799.588,68.09364219571776
799.707,66.44505643720326
799.826,64.04495552717354
799.945,66.28035245264165
800.064,68.48890955127005
800.183,71.05504240747423
800.302,65.40126184376498
800.421,67.85830379087824
800.54,62.55950158214728
800.659,59.90658681930382
800.778,55.72986253265089
800.897,62.526298419158366
801.016,69.81537499830664
801.135,88.06202733503079
801.254,98.20824677132214
801.373,109.49212854527579
801.492,109.23921378243281
801.611,107.76119079448145
801.729,104.18360070696303
801.848,108.4518980653321
801.967,107.31240321590889
802.086,116.85689105046845
802.205,122.18839187204117
802.324,123.41339918712053
802.443,117.55615541994877
802.562,102.26341381727917
802.681,86.8814947254321
802.8,70.15074429883255
802.919,47.219137824015036
803.038,33.851806209047695
803.157,20.368498223623057
803.276,12.000885123975845
803.394,3.5387366876353887
803.513,-7.403726631456204
803.632,-12.08119201641804
803.751,-16.838520947882554
803.87,-23.24292666678722
803.989,-22.96449545192724
804.108,-27.118117481005086
804.227,-27.93960515397302
804.346,-35.45733681905322
804.465,-31.003943095881013
804.583,-23.283155605400033
804.702,-14.436068209174401
804.821,-8.760093691824142
804.94,-4.512945068043576
805.059,-4.288657609477419
805.178,4.705529676100115
805.297,-0.15698353314610403
805.416,8.138044943990613
805.535,14.686166089830238
805.653,17.286814491334
805.772,17.260256344802848
805.891,13.37112157292753
806.01,16.15310965849837
806.129,26.095817248051354
806.248,29.3227356377146
806.367,41.5413218463063
806.485,47.32534424631205
806.604,59.88243629016055
806.723,78.23591065739127
806.842,100.98807474766323
806.961,126.78006567776202
807.08,146.75387478967906
807.198,169.18569255960463
807.317,177.72486963688942
807.436,173.5480293981568
807.555,163.71750950574437
807.674,150.68785541419774
807.793,142.90495456940434
807.912,127.17659917915634
808.03,117.36945591012062
808.149,118.81599229476464
808.268,122.98720400408423
808.387,142.7973767523651
808.506,164.36685685995337
808.624,187.99607722728203
808.743,213.21663958595252
808.862,221.6103621177832
808.981,221.3763790219083
809.1,211.1952097788472
809.219,194.87031759206332
809.337,180.8804903403444
809.456,164.91317391113634
809.575,143.68958042565117
809.694,137.56035923453808
809.812,134.10732851961555
809.931,127.3400120904073
810.05,134.18828007678349
810.169,143.22442685103863
810.288,153.18524894996924
810.406,161.04130914413778
810.525,163.4584082993453
810.644,165.1664165454617
810.763,167.48394860110164
810.882,164.6110044662653
811.0,177.4861122794809
811.119,186.92052745200388
811.238,199.5367608063451
811.357,210.51403312172522
811.475,212.33372967952963
811.594,204.17074225464992
811.713,206.8900059120212
811.832,215.13481069493366
811.95,226.25667175490247
812.069,231.04173627807484
812.188,238.59390036834674
812.307,240.9642462768003
812.425,235.1735532242148
812.544,215.6434662322352
812.663,210.651041577918
812.782,207.26727493225874
812.9,196.43675503984636
813.019,193.07030441150323
813.138,204.16359404290037
813.257,215.19714341455722
813.375,220.4627274182486
813.494,216.75341964704808
813.613,228.59302962476528
813.731,232.6057997756426
813.85,240.7103448182948
813.969,252.60450025055732
814.088,271.5696513538155
814.206,279.77809250036364
814.325,277.64194490232296
814.444,277.5144553129402
814.562,288.24670598329755
814.681,295.8257099004081
814.8,313.6003848131898
814.918,320.52397747488936
815.037,328.4951891842081
815.156,325.37029699742305
815.274,323.9380455032787
815.393,322.2867463900867
815.512,321.83631307776045
815.631,314.9521135316679
815.749,315.7068750245364
815.868,311.06683132259974
815.987,307.754060347936
816.105,300.7105534425364
816.224,304.6107694808598
816.343,300.1075223157201
816.461,294.35925350555874
816.58,293.7884738728865
816.698,292.60990203242216
816.817,292.4391223997502
816.936,282.2397713385068
817.055,272.2655285023716
817.173,255.09648047143145
817.292,228.15686966992848
817.41,216.46487791604457
817.529,206.04561343488785
817.648,201.30860003598227
817.766,204.36812343361362
817.885,193.47526587886406
818.004,190.44301438472075
818.122,175.02461570443035
818.241,159.30751572543863
818.359,158.43976639579748
818.478,152.6040516981908
818.597,165.9380339702811
818.715,175.36552273587802
818.834,185.0166340348393
818.953,184.11407563734227
819.071,186.14214052927827
819.19,206.3392202614166
819.308,262.2967649815587
819.427,361.0050638897357
819.546,483.13963860893887
819.664,585.4775671178445
819.783,652.7755670855481
819.901,634.1625965667417
820.02,566.5677061647418
820.138,457.2879803711253
820.257,350.0934424218019
820.376,265.80251520362805
820.494,207.00032567111307
820.613,173.3574828691323
820.731,161.12374084193203
820.85,151.02828588458522
820.969,144.4540430484504
821.087,142.41313354564892
821.206,145.54451841514185
821.324,148.81702882576027
821.443,164.37005871689826
821.561,184.31010159504942
821.68,209.73152975458606
821.798,227.54170250286745
821.917,222.3033904026642
822.035,213.1629138002964
822.154,197.29429866979012
822.273,177.58758830118842
822.391,163.79083464254347
822.51,154.9810939709115
822.628,148.31853944646576
822.747,147.69494596098122
822.865,147.10771611186036
822.984,146.08498842724154
823.102,145.11680619716833
823.221,147.75122136969233
823.339,146.2678876244674
823.458,146.77070106538952
823.576,140.4561984889955
823.695,139.0810898519955
823.813,139.25489896391326
823.932,137.65381630093916
824.05,136.66225744748894
824.169,152.68974621308632
824.287,153.11030857175723
824.406,149.75251595207322
824.524,147.8613899990559
824.643,141.65338092915573
824.761,140.82026363414735
824.88,135.25208140407403
824.998,137.68563077573222
825.117,148.1893100175202
825.235,152.11723168355053
825.354,155.90143040585798
825.472,165.16441700695327
825.591,165.96852914917423
825.709,169.0124681312219
825.828,157.82610408296648
825.946,148.73930713427802
826.064,138.4248045578839
826.183,130.00640587759352
826.301,123.51527992457586
826.42,118.87956522696939
826.538,117.55900204451419
826.657,119.2635470871671
826.775,119.66073282246064
826.894,124.41029951013513
827.012,127.66635970430312
827.13,130.73107790712913
827.249,134.00964892380793
827.367,131.18259223485902
827.486,125.4369208272953
827.604,119.10077322925547
827.723,112.66332692991708
827.841,107.01549102018923
827.959,101.9823737251799
828.078,107.13453781545203
828.196,115.8113772303993
828.315,122.71072746785725
828.433,134.5867010819386
828.552,154.39687383021905
828.67,162.0252283966814
828.788,160.7990375085982
828.907,160.66375571142413
829.025,152.2678678536442
829.143,135.49102761491193
829.262,112.72249227683943
829.38,87.60435421867321
829.499,69.19608478339475
829.617,46.04734800823276
829.735,25.68023073960609
829.854,20.087450338899817
829.972,16.639878266753186
830.091,21.829165269968097
830.209,33.08725812556626
830.327,41.17934614347861
830.446,65.80323270401705
830.564,85.07506910964788
830.682,109.09194728476606
830.801,130.1165201105733
830.919,154.44879828371256
831.037,173.48497256074808
831.156,186.1375970542336
831.274,190.98762414512166
831.392,183.62206682042518
831.511,168.1578081970273
831.629,152.62601710609687
831.747,130.34703986798036
831.866,110.44988081168206
831.984,84.52934513200735
832.102,80.70058434410754
832.221,76.58561824985802
832.339,67.70359133531053
832.457,67.2921114430068
832.576,67.93408959881822
832.694,76.02267507688087
832.812,72.65179997799183
832.93,65.91556625437511
833.049,67.89031931559178
833.167,54.597004136749305
833.285,43.23248875626996
833.404,34.84401212095196
833.522,31.23422707913563
833.64,36.77493485057532
833.759,35.963860837960574
833.877,46.4195278717795
833.995,51.91647344693927
834.113,56.471555889136745
834.232,65.88651080448699
834.35,76.97226139624803
834.468,86.19361515200094
834.586,98.52084407193195
834.705,103.37534571913545
834.823,116.34932788581926
834.941,123.89733602652892
835.059,126.8643917862862
835.178,125.93274624734232
835.296,120.73616564346334
835.414,108.93179283179225
835.532,102.3551256478266
835.651,88.95075283615512
835.769,83.00005967816321
835.887,88.63291630372098
836.005,100.13850020200621
836.124,111.88737414358164
836.242,126.82672427563318
836.36,142.908931550542
836.478,153.77209120640308
836.596,162.38070540771864
836.715,169.9183239380385
836.833,177.63689484931064
836.951,186.9216995268167
837.069,190.96840896622743
837.188,200.46014005065973
837.306,212.03498801820905
837.424,217.4955502714726
837.542,223.5431255117491
837.66,225.0790124403373
837.779,231.35602491005108
837.897,238.6235135702412
838.015,234.09446543389478
838.133,232.65199738412872
838.251,238.01385833869193
838.369,242.04584916338518
838.487,241.8527317629701
838.606,237.75225505519552
838.724,237.41714631278882
838.842,242.08290337124782
838.96,229.57809765914413
839.078,221.36766424141274
839.196,225.87930874575937
839.315,229.77623463538754
839.433,237.9277059795611
839.551,236.9969262414835
839.669,235.62025905751835
839.787,244.40030183026312
839.905,240.48337490603802
840.023,235.36038737575225
840.142,236.05211846018514
840.26,228.31094911171746
840.378,229.8026801961501
840.496,225.42168400785553
840.614,222.55583933471252
840.732,217.3618561334311
840.85,208.35921492349178
840.968,204.54791570489454
841.087,203.79029613997702
841.205,198.14263328501602
841.323,200.90709164217606
841.441,204.32176644955257
841.559,206.2247529452407
841.677,216.28704680023634
841.795,228.21860472449595
841.913,244.7319808305738
842.031,263.0843179756127
842.149,273.77172005571646
842.267,280.8218926985908
842.385,283.70583157523123
842.504,289.3179089800102
842.622,301.3126703674732
842.74,307.35505080255507
842.858,317.30305894326466
842.976,322.8112402441475
843.094,320.93240855801724
843.212,323.9869102052204
843.33,327.06998328099496
843.448,334.7582511619643
843.566,333.7391597355744
843.684,341.77288216199804
843.802,342.7979465797637
843.92,336.56933134384974
844.038,327.1026208698405
844.156,330.8506290105498
844.274,334.74236009498213
844.392,336.9882037335271
844.51,340.1613200993449
844.628,354.3638736945999
844.746,350.0235701469978
844.864,349.6001497162788
844.982,337.9931795020101
845.1,334.66759456912655
845.218,323.20348149771496
845.336,303.92205240898755
845.454,286.93412981376673
845.572,270.81460548694446
845.69,245.15222401726515
845.808,230.21105466879797
845.926,212.20495025539586
846.044,198.26291510606302
846.162,186.91222194807216
846.28,169.07754610609862
846.398,153.10174472299963
846.516,135.30862732258453
846.634,116.43412464078415
846.752,107.06351806287984
846.87,95.60459979666386
846.988,86.35174213650845
847.106,74.64197758626383
847.224,61.95831835091264
847.342,48.33661791734535
847.46,33.61292791458688
847.578,16.886179355991214
847.696,6.934795323502213
847.814,0.63146363050341
847.932,1.7585711960879302
848.05,-5.64279445172843
848.168,3.5571225675533875
848.285,10.186326631370555
848.403,16.491433659618252
848.521,25.22989153304163
848.639,32.50523283898658
848.757,37.07820051147141
848.875,46.76504251053291
848.993,54.8862660390141
849.111,68.09710191740339
849.229,79.8583677557791
849.347,82.47937385389505
849.465,87.08219813382911
849.582,88.96813929688017
849.7,86.55797656382747
849.818,91.51231599527705
849.936,95.31946927954067
850.054,93.01580005298189
850.172,101.84892736321977
850.29,99.30629709770017
850.408,97.77319064170439
850.525,102.91887206449658
850.643,108.92948855222389
850.761,115.03447733432355
850.879,121.74292931988651
850.997,124.01588346995158
851.115,130.9572358884149
851.233,131.66222467051455
851.35,131.76894505434575
851.468,133.9934143559259
851.586,130.70446374408618
851.704,131.11594603267946
851.822,141.8235322173766
851.94,151.82808809904355
852.057,171.33221108027766
852.175,202.8216154467931
852.293,240.58980769209626
852.411,285.846311625711
852.529,322.41710127361154
852.647,356.2952502288713
852.764,393.6244814352132
852.882,420.8350979229406
853.0,454.51671008166375
853.118,487.40005384211844
853.236,513.9422720614476
853.353,548.5823257786124
853.471,559.2951067685044
853.589,560.8624332129422
853.707,551.460062687683
853.824,529.6083415130734
853.942,508.41549479733806
854.06,480.1880160469708
854.178,454.0046931407593
854.296,439.45253906571656
854.413,416.09865338894224
854.531,393.94563351303395
854.649,370.95192099643305
854.767,350.84392276554644
854.884,325.0077860065212
855.002,290.540480416327
855.12,255.40823976119765
855.238,223.88812031818935
855.355,195.42081472799498
855.473,166.49203727632886
855.591,140.4325238939267
855.708,116.25352999204416
855.826,89.97410318972885
855.944,59.574961751171315
856.062,37.508443922922595
856.179,19.791541383005935
856.297,8.716238308762614
856.415,4.598475187683708
856.532,-2.87245894678868
856.65,-7.129835356158305
856.768,-15.070978581241544
856.886,-28.874387319680906
857.003,-29.07209311927904
857.121,-34.172324399997365
857.239,-36.5736897825426
857.356,-29.660262941444394
857.474,-25.79359471580538
857.592,-21.707881234793643
857.709,-20.079156924008444
857.827,-18.456698320594434
857.945,-3.6151723771579523
858.062,6.4463691992060985
858.18,8.526824962810501
858.298,19.059923511916384
858.415,17.06944708305672
858.533,19.05141079893147
858.651,23.596957211401538
858.768,27.078745525944598
858.886,40.03307532805354
859.003,46.631945513556275
859.121,46.50941759597963
859.239,55.61959075636895
859.356,48.777249096345926
859.474,47.93577323718853
859.592,47.87957876331254
859.709,45.91775658380867
859.827,41.668811493453575
859.944,30.796047918242376
860.062,21.261372012979294
860.18,16.80737745772241
860.297,8.980744967648961
860.415,7.9921709867757205
860.532,14.327656717546763
860.65,14.207510301812649
860.768,13.113292825957863
860.885,17.030744399960057
861.003,16.451108737736455
861.12,22.90435209567329
861.238,26.67726909064767
861.356,32.501654929221225
861.473,38.537182483814746
861.591,38.54973435937111
861.708,44.41950126301252
861.826,54.49455547943299
861.943,50.40497060064948
862.061,48.308458094489644
862.178,41.597903845895715
862.296,35.585922502715974
862.414,29.10745487830254
862.531,32.665222496965654
862.649,26.700949527519413
862.766,29.910550469949303
862.884,32.13488455632679
863.001,31.06150767861483
863.119,29.510256532958955
863.236,33.90058734529063
863.354,36.609151628903064
863.471,39.07369228834696
863.589,30.075294701682054
863.706,34.03031630224615
863.824,37.646627463416095
863.941,40.40303891571191
864.059,48.108368116925355
864.176,68.84226874671033
864.294,84.67487067519662
864.411,92.945567841778
864.529,87.43358102567541
864.646,81.87224356022219
864.764,70.93601431987719
864.881,65.96775044749754
864.999,61.51896709459838
865.116,66.66325733477284
865.233,82.12529649269622
865.351,93.24794171122568
865.468,99.69612805529627
865.586,109.80405465910714
865.703,118.99163494257172
865.821,122.9636308104517
865.938,129.41268295538782
866.056,138.69550133409027
866.173,146.70212923660227
866.29,147.02650605686333
866.408,145.1768569030985
866.525,138.4674674895935
866.643,132.88015599816643
866.76,126.02531203920688
866.878,128.46224297202218
866.995,132.98748559314924
867.112,133.44865895020695
867.23,136.6033388007711
867.347,138.75542124873786
867.465,130.8425686317696
867.582,127.28902337410882
867.699,125.69565127662119
867.817,128.5637510406054
867.934,134.73228370502238
868.051,136.23588130450418
868.169,141.88060444511137
868.286,138.5123405727315
868.404,134.36831912459405
868.521,144.25719810935703
868.638,158.48373943178234
868.756,176.2055188494457
868.873,187.63379177360258
868.99,202.76249759819245
869.108,214.55007788165693
869.225,219.8017274291908
869.342,237.3598704832183
869.46,270.2262386454708
869.577,293.70386221897854
869.694,312.5988018098023
869.812,328.85045135733594
869.929,352.00339960616816
870.046,369.6126249112776
870.164,386.0183870129239
870.281,395.50207119249217
870.398,410.09484628115126
870.516,410.5698724520614
870.633,407.912431090504
870.75,392.4878901618471
870.867,382.83997260981346
870.985,383.5435702092951
871.102,382.57790373951264
871.219,366.8520641095571
871.337,355.5521985055756
871.454,350.491293940555
871.571,327.698787643933
871.688,295.8725151135446
871.806,274.7137750506887
871.923,263.3515717843697
872.04,252.66988799857023
872.157,230.55616958073634
872.275,214.2736199940714
872.392,211.69842971476584
872.509,194.48081519303616
872.626,180.6796508877568
872.744,171.9719930759838
872.861,166.2643352642108
872.978,152.53849563425598
873.095,134.6317036233487
873.213,117.23053931806905
873.33,107.17396375737809
873.447,91.5883838676827
873.564,74.83570441088776
873.681,64.08562235669018
873.799,58.63597320292551
873.916,43.41848113411437
874.033,31.671903101019637
874.15,27.711244841508783
874.267,23.202344807768608
874.385,16.17093944905514
874.502,15.736389567976577
874.619,14.377321633516502
874.736,17.978966054637425
874.853,15.989479095998158
874.97,9.736319146603831
875.088,7.682277884356515
875.205,0.6392367604545941
875.322,-2.593096559832519
875.439,3.754222710562364
875.556,6.1841304130148735
875.673,8.443451030348543
875.791,15.466779108031357
875.908,18.098530089692613
876.025,12.701334876237388
876.142,6.35863781264465
876.259,0.884850753238038
876.376,-8.338260755357053
876.493,-12.655025207951113
876.61,-16.60729485474396
876.728,-8.328646508904376
876.845,7.430194677931286
876.962,11.424471806420954
877.079,13.15174858770489
877.196,15.150717691856192
877.313,13.48604893172624
877.43,9.758164474086488
877.547,6.397083501053172
877.664,6.6519310548101345
877.781,8.150766730926073
877.898,6.713844313108725
878.016,9.419297185516585
878.133,9.128938072670238
878.25,13.972682336549731
878.367,1.9028780491849804
878.484,1.7988869552995315
878.601,-1.8661421194196812
878.718,-8.166557802586922
878.835,-6.496491514510552
878.952,-4.970454384045945
879.069,-8.430943409545971
879.186,-6.832602802203066
879.303,-13.436374606814889
879.42,-4.042695461043078
879.537,0.33392765719695294
879.654,3.3418576668733535
879.771,2.310151393001103
879.888,-6.128702250879658
880.005,-9.436469667214988
880.122,-13.408463332183116
880.239,-18.044683245784057
880.356,-23.345129408017808
